Time	L_BF	L_GAL	L_TA	L_VL	R_BF	R_GAL	R_TA	R_VL
0	0.005023	0.00106	-0.024161	-0.001379	0.003168	0.005061	0.002919	0.003573
0.0005	0.004248	-0.000359	-0.006673	-0.003818	0.003985	0.005949	0.002706	0.00605
0.001	0.00308	-0.001598	0.010641	-0.007219	0.005169	0.001439	0.00382	0.007227
0.0015	0.001863	-0.001223	0.028349	-0.00816	0.004781	-0.00762	0.00515	0.007017
0.002	0.001744	0.000465	0.047499	-0.000465	0.001991	-0.016757	0.004753	0.006205
0.0025	0.004314	0.001529	0.060767	0.016788	3.8e-05	-0.023094	0.002892	0.005282
0.003	0.008803	0.00101	0.056885	0.037652	0.001815	-0.027687	0.001543	0.004219
0.0035	0.011026	-0.000528	0.040416	0.05534	0.004952	-0.034497	0.001009	0.003431
0.004	0.009084	-0.00127	0.029599	0.066031	0.004779	-0.046975	-0.000282	0.00328
0.0045	0.007462	5e-05	0.032527	0.068175	0.001746	-0.063506	-0.003151	0.002595
0.005	0.010785	0.001864	0.040285	0.062822	0.000439	-0.076208	-0.006692	0.001805
0.0055	0.016941	0.001703	0.042991	0.055299	0.001483	-0.076059	-0.009497	0.003655
0.006	0.021204	0.000164	0.041165	0.050092	0.00215	-0.060572	-0.01151	0.007283
0.0065	0.022307	-0.000287	0.040113	0.046387	0.001979	-0.039815	-0.013645	0.009707
0.007	0.021193	0.001255	0.039395	0.0417	0.002072	-0.028997	-0.015803	0.010602
0.0075	0.01893	0.004243	0.032348	0.034493	0.002374	-0.030865	-0.016437	0.009965
0.008	0.015712	0.007126	0.015966	0.024419	0.002259	-0.035029	-0.014227	0.00748
0.0085	0.010557	0.007714	-0.003224	0.013125	0.002025	-0.033105	-0.010042	0.004798
0.009	0.004554	0.005284	-0.015965	0.003109	0.001882	-0.024366	-0.006021	0.004428
0.0095	0.000841	0.001633	-0.019954	-0.004661	0.001336	-0.00947	-0.002939	0.006401
0.01	0.000352	-0.001366	-0.019406	-0.010764	0.001075	0.011368	-0.000224	0.00831
0.0105	0.001245	-0.003553	-0.018742	-0.015509	0.002242	0.030685	0.002001	0.008379
0.011	0.001369	-0.004558	-0.024091	-0.019348	0.003296	0.035332	0.002504	0.005671
0.0115	0.0004	-0.004168	-0.045312	-0.023887	0.001834	0.023636	0.000631	0.000694
0.012	-0.00134	-0.003691	-0.082436	-0.0289	-0.000919	0.009492	-0.002133	-0.003125
0.0125	-0.004688	-0.003189	-0.115441	-0.030418	-0.002276	0.005154	-0.003371	-0.003207
0.013	-0.009625	-0.001241	-0.12272	-0.025966	-0.001587	0.00937	-0.002927	-0.002021
0.0135	-0.015278	0.00131	-0.10857	-0.019437	0.001158	0.013927	-0.002469	-0.004017
0.014	-0.02132	0.001911	-0.102227	-0.017297	0.003959	0.0178	-0.002183	-0.008211
0.0145	-0.025579	0.000884	-0.125322	-0.023536	0.00334	0.029231	-0.001332	-0.00916
0.015	-0.024518	0.00141	-0.164966	-0.037641	0.000509	0.050378	-0.000928	-0.006135
0.0155	-0.018741	0.004617	-0.183441	-0.050813	-0.000678	0.066511	-0.003231	-0.002734
0.016	-0.013541	0.008105	-0.15045	-0.050908	1.5e-05	0.060646	-0.008722	6.4e-05
0.0165	-0.011993	0.009069	-0.064742	-0.036909	0.000424	0.037072	-0.014701	0.003541
0.017	-0.011568	0.007629	0.049194	-0.019457	-0.001021	0.019086	-0.017924	0.007071
0.0175	-0.009398	0.006774	0.160599	-0.006911	-0.004084	0.021247	-0.018035	0.007862
0.018	-0.00714	0.007489	0.245277	-0.000442	-0.006351	0.030972	-0.017649	0.005786
0.0185	-0.007482	0.007215	0.28168	0.000706	-0.005597	0.023072	-0.018782	0.004061
0.019	-0.008921	0.004504	0.25306	-0.000101	-0.002719	-0.009334	-0.01969	0.004291
0.0195	-0.007981	0.000924	0.168935	0.002312	-0.000171	-0.046088	-0.018209	0.005318
0.02	-0.004636	-0.001048	0.073009	0.005856	0.000957	-0.065576	-0.016353	0.005461
0.0205	-0.002817	-0.000175	0.012382	0.004792	0.000446	-0.070879	-0.016144	0.005019
0.021	-0.004571	0.002065	-0.000694	0.001168	-0.000783	-0.07867	-0.014545	0.005808
0.0215	-0.006213	0.002516	0.010564	-0.000114	-0.000795	-0.087455	-0.008088	0.00761
0.022	-0.003893	0.000578	0.020465	-0.000533	0.000332	-0.075734	0.002208	0.00798
0.0225	0.000338	-0.00136	0.023056	-0.003117	0.000815	-0.034368	0.013168	0.005711
0.023	0.002635	-0.002097	0.022797	-0.005902	0.000393	0.016566	0.021599	0.002814
0.0235	0.003681	-0.001817	0.019442	-0.00698	0.000818	0.049743	0.024661	0.001753
0.024	0.004884	-0.00139	0.010565	-0.007523	0.002731	0.054	0.021534	0.002318
0.0245	0.005273	-0.002382	-0.000682	-0.007739	0.004358	0.03457	0.014974	0.002475
0.025	0.00547	-0.004054	-0.008497	-0.007579	0.004434	0.007083	0.010503	0.001452
0.0255	0.005964	-0.003936	-0.011306	-0.006268	0.002965	-0.012172	0.010887	0.001042
0.026	0.005243	-0.002328	-0.012794	-0.002319	0.000313	-0.017454	0.011792	0.001431
0.0265	0.003065	-0.002502	-0.017859	0.001316	-0.001916	-0.010631	0.007569	0.000374
0.027	0.000421	-0.005344	-0.026411	0.000935	-0.002211	0.004438	-0.000237	-0.001595
0.0275	-0.001794	-0.007184	-0.031893	-0.00227	-0.001899	0.018868	-0.004559	-0.002631
0.028	-0.003553	-0.005496	-0.029658	-0.00628	-0.003321	0.02103	-0.002823	-0.003244
0.0285	-0.005852	-0.002874	-0.022765	-0.010746	-0.006199	0.007909	-7.6e-05	-0.004168
0.029	-0.009075	-0.003066	-0.016397	-0.014051	-0.00856	-0.010527	-0.000209	-0.00493
0.0295	-0.012409	-0.005321	-0.012392	-0.013771	-0.009168	-0.020288	-0.001865	-0.005217
0.03	-0.014781	-0.005958	-0.009884	-0.010691	-0.00806	-0.014526	-0.003885	-0.005289
0.0305	-0.016279	-0.005118	-0.008715	-0.007375	-0.006392	0.001286	-0.007452	-0.004725
0.031	-0.017357	-0.005555	-0.011868	-0.005129	-0.005399	0.013241	-0.013161	-0.003734
0.0315	-0.016496	-0.006448	-0.020386	-0.005238	-0.005451	0.009462	-0.018615	-0.004048
0.032	-0.011849	-0.00618	-0.02868	-0.007841	-0.006239	-0.012057	-0.019633	-0.005362
0.0325	-0.005305	-0.006403	-0.030748	-0.010762	-0.006995	-0.041325	-0.015499	-0.005574
0.033	-0.001518	-0.007417	-0.025433	-0.012557	-0.006837	-0.06005	-0.010652	-0.004343
0.0335	-0.001369	-0.006657	-0.013401	-0.013357	-0.005277	-0.05363	-0.008907	-0.002862
0.034	-0.00141	-0.004442	0.005406	-0.012594	-0.002462	-0.024486	-0.010375	-0.001487
0.0345	-0.000406	-0.003795	0.029264	-0.010033	0.000377	0.007673	-0.013948	0.000483
0.035	0.000114	-0.005162	0.053696	-0.007758	0.002047	0.022393	-0.016802	0.002425
0.0355	-0.000852	-0.006238	0.075958	-0.007335	0.003484	0.017803	-0.014896	0.002771
0.036	-0.00333	-0.005267	0.095395	-0.007387	0.005967	0.010147	-0.008215	0.001666
0.0365	-0.005475	-0.00308	0.107671	-0.005647	0.007902	0.011744	-0.000614	0.000798
0.037	-0.004332	-0.001501	0.103622	-0.002854	0.00733	0.01662	0.005351	0.000787
0.0375	0.000336	-0.000665	0.077165	-0.002182	0.005325	0.011941	0.009765	0.0005
0.038	0.005929	0.000233	0.033701	-0.002993	0.00353	-0.002144	0.013054	-0.000155
0.0385	0.010953	0.002049	-0.015081	-0.001919	0.00194	-0.010389	0.013979	-0.000191
0.039	0.01531	0.005306	-0.063352	0.00016	0.000482	-0.002055	0.011527	-0.000499
0.0395	0.017082	0.008899	-0.11139	0.000347	-0.00044	0.015236	0.008291	-0.002346
0.04	0.013845	0.011139	-0.15838	-0.000129	-0.000742	0.028729	0.007932	-0.004052
0.0405	0.007279	0.01138	-0.196204	0.001187	6e-05	0.038086	0.00999	-0.004134
0.041	0.002375	0.009917	-0.207916	0.003241	0.001698	0.048622	0.010617	-0.004588
0.0415	0.001589	0.007736	-0.183577	0.004793	0.00113	0.054222	0.007756	-0.005906
0.042	0.003253	0.006337	-0.13916	0.005398	-0.002828	0.042958	0.004295	-0.006136
0.0425	0.005258	0.006591	-0.10464	0.004114	-0.006543	0.018182	0.00506	-0.006035
0.043	0.006066	0.007105	-0.091652	0.003272	-0.007268	-0.002562	0.010245	-0.006192
0.0435	0.004731	0.006112	-0.085208	0.005749	-0.005407	-0.008565	0.014286	-0.005449
0.044	0.002869	0.004063	-0.066989	0.009762	-0.002422	-0.003649	0.01256	-0.004905
0.0445	0.002308	0.002267	-0.033715	0.012374	-0.000795	0.003068	0.006741	-0.0043
0.045	0.002145	0.00196	0.006783	0.011401	-0.000889	0.006293	0.002135	-0.001465
0.0455	0.001743	0.003137	0.045979	0.004459	0.000871	0.006047	0.00244	0.001616
0.046	0.002947	0.002893	0.080659	-0.006814	0.005695	0.004122	0.00697	0.002444
0.0465	0.006991	-0.000306	0.111338	-0.015441	0.009849	0.003182	0.011779	0.002709
0.047	0.011594	-0.002822	0.133336	-0.018082	0.010635	0.008004	0.014579	0.003163
0.0475	0.013132	-0.001113	0.133484	-0.019178	0.00884	0.019018	0.015721	0.001969
0.048	0.011094	0.002974	0.102445	-0.02244	0.005612	0.026258	0.014872	-0.000588
0.0485	0.008607	0.005658	0.049428	-0.026637	0.001618	0.021454	0.010831	-0.002326
0.049	0.007992	0.00576	-0.00201	-0.028579	-0.001534	0.011899	0.004127	-0.001418
0.0495	0.008132	0.004129	-0.032211	-0.025855	-0.002461	0.010847	-0.001818	0.002385
0.05	0.00705	0.002099	-0.036365	-0.017956	-0.001622	0.019751	-0.004138	0.005738
0.0505	0.00448	1e-05	-0.021192	-0.004728	0.000343	0.027933	-0.005046	0.006152
0.051	0.001972	-0.002372	0.003235	0.010914	0.002658	0.026034	-0.008614	0.005767
0.0515	0.000986	-0.003503	0.024837	0.021874	0.002703	0.013663	-0.01407	0.006215
0.052	0.000984	-0.002536	0.030269	0.024666	-4.3e-05	-0.003519	-0.017553	0.006568
0.0525	0.000746	-0.001419	0.014621	0.022095	-0.000886	-0.016256	-0.017838	0.006085
0.053	0.00013	-0.00087	-0.011509	0.016982	0.002713	-0.016496	-0.0159	0.005219
0.0535	-0.000685	9.4e-05	-0.029462	0.009331	0.005388	-0.009646	-0.012202	0.004975
0.054	-0.002546	0.000719	-0.028721	0.000362	0.002391	-0.01404	-0.007767	0.005262
0.0545	-0.006158	0.00026	-0.01716	-0.007416	-0.002032	-0.037095	-0.004991	0.004425
0.055	-0.009912	-0.000356	-0.014219	-0.012614	-0.001981	-0.058374	-0.004242	0.002265
0.0555	-0.011505	-0.000614	-0.032232	-0.012623	0.000767	-0.050895	-0.002623	0.001447
0.056	-0.010833	-0.000392	-0.065566	-0.00595	0.001555	-0.01542	0.001114	0.002189
0.0565	-0.009767	0.000176	-0.097176	0.003792	0.000381	0.02114	0.004246	0.001597
0.057	-0.009922	0.000324	-0.111815	0.011276	-1e-06	0.035295	0.005033	-5.4e-05
0.0575	-0.011224	-0.00079	-0.100938	0.013676	0.001444	0.025249	0.005326	-0.000902
0.058	-0.01313	-0.0029	-0.060697	0.011271	0.003844	0.006507	0.005797	-0.002548
0.0585	-0.015359	-0.003424	-0.000653	0.006821	0.00574	-0.00552	0.003801	-0.007783
0.059	-0.017156	-0.001371	0.050948	0.004901	0.005636	-0.00774	-0.002204	-0.014888
0.0595	-0.018431	0.000743	0.077396	0.00761	0.004092	-0.004652	-0.009861	-0.018956
0.06	-0.019589	0.001404	0.100829	0.011993	0.00351	0.00101	-0.014342	-0.019089
0.0605	-0.019461	0.000749	0.151416	0.014924	0.003997	0.00924	-0.013184	-0.018244
0.061	-0.017177	-0.000897	0.220416	0.015628	0.003544	0.020362	-0.010859	-0.018259
0.0615	-0.014469	-0.002813	0.266369	0.01497	0.001204	0.03305	-0.013338	-0.018065
0.062	-0.012196	-0.004185	0.254832	0.013018	-0.002991	0.042542	-0.018714	-0.016229
0.0625	-0.008651	-0.0049	0.177849	0.005408	-0.00807	0.043487	-0.020517	-0.015196
0.063	-0.004521	-0.006173	0.057619	-0.01028	-0.011005	0.035557	-0.016645	-0.017405
0.0635	-0.003114	-0.007982	-0.054601	-0.027602	-0.009284	0.024386	-0.00891	-0.019662
0.064	-0.003978	-0.007601	-0.107366	-0.039336	-0.005367	0.016911	0.000318	-0.018419
0.0645	-0.003215	-0.003312	-0.092264	-0.045744	-0.0034	0.016051	0.007705	-0.01574
0.065	-0.00079	0.003242	-0.049416	-0.048626	-0.002822	0.019886	0.009781	-0.014607
0.0655	-0.000796	0.008698	-0.026504	-0.045383	-0.002464	0.024786	0.006068	-0.013741
0.066	-0.003812	0.011135	-0.041142	-0.034404	-0.003879	0.025941	-0.000717	-0.012028
0.0665	-0.006098	0.010879	-0.078864	-0.017814	-0.005548	0.015139	-0.00806	-0.011077
0.067	-0.005984	0.008246	-0.110968	0.001058	-0.004751	-0.013286	-0.012792	-0.01054
0.0675	-0.004836	0.003666	-0.116732	0.016948	-0.003266	-0.053458	-0.009575	-0.007309
0.068	-0.003689	-0.001032	-0.097802	0.025708	-0.003172	-0.09382	0.002134	-0.000304
0.0685	-0.00276	-0.004186	-0.071683	0.029059	-0.003768	-0.126702	0.014893	0.007625
0.069	-0.002268	-0.005342	-0.057765	0.031442	-0.003942	-0.142863	0.022449	0.013041
0.0695	-0.001863	-0.004705	-0.067688	0.033425	-0.002197	-0.128594	0.02515	0.014223
0.07	-0.00084	-0.003122	-0.089613	0.031687	0.001572	-0.083221	0.024919	0.012622
0.0705	0.001144	-0.000865	-0.082257	0.025729	0.003828	-0.029031	0.022214	0.012657
0.071	0.003863	0.002587	-0.01291	0.018626	0.002272	0.010967	0.01766	0.015754
0.0715	0.005886	0.005595	0.092956	0.011716	-0.000586	0.036259	0.013187	0.019196
0.0720000000000001	0.006556	0.005131	0.168437	0.005115	-0.002064	0.060231	0.011295	0.021542
0.0725000000000001	0.007915	0.000802	0.176932	0.001423	-0.002147	0.085686	0.011846	0.021983
0.0730000000000001	0.011158	-0.005122	0.140042	0.002969	-0.001434	0.098703	0.011805	0.01896
0.0735000000000001	0.014285	-0.009618	0.094432	0.006338	-0.000794	0.08712	0.010442	0.014436
0.0740000000000001	0.015531	-0.010454	0.053474	0.005933	-0.000351	0.0566	0.009712	0.012311
0.0745000000000001	0.015891	-0.008411	0.016055	0.001495	0.001154	0.024568	0.009664	0.012368
0.0750000000000001	0.01644	-0.007011	-0.015619	-0.002669	0.003033	0.003293	0.009077	0.011906
0.0755000000000001	0.016113	-0.00749	-0.037692	-0.002828	0.00355	-0.007877	0.008128	0.010387
0.0760000000000001	0.014301	-0.006972	-0.049938	0.00071	0.003276	-0.014809	0.007473	0.009331
0.0765000000000001	0.012376	-0.004035	-0.055028	0.00372	0.003194	-0.015396	0.006198	0.009124
0.0770000000000001	0.011642	-0.000364	-0.05954	0.003422	0.003553	-0.000952	0.003083	0.008165
0.0775000000000001	0.011637	0.00312	-0.072861	0.001771	0.004827	0.024269	-0.000545	0.006463
0.0780000000000001	0.010688	0.006461	-0.096263	0.000724	0.006158	0.036774	-0.003225	0.005895
0.0785000000000001	0.008664	0.009075	-0.118485	-0.000804	0.005645	0.018927	-0.00549	0.005612
0.0790000000000001	0.006817	0.009799	-0.129116	-0.002417	0.00341	-0.015906	-0.006669	0.003654
0.0795000000000001	0.005768	0.007618	-0.12549	-0.002185	0.001026	-0.034165	-0.005316	0.001472
0.0800000000000001	0.007719	0.003672	-0.104557	-0.001514	-0.000266	-0.021862	-0.003049	0.000556
0.0805000000000001	0.015683	0.000918	-0.062835	-0.001904	-0.000203	-0.002853	-0.003295	-6e-06
0.0810000000000001	0.028635	0.000425	-0.00655	-0.001796	-0.000707	-0.006077	-0.007052	-0.000478
0.0815000000000001	0.04221	0.000785	0.046896	-0.001231	-0.00289	-0.029145	-0.011814	-0.000731
0.0820000000000001	0.052745	0.000727	0.080105	-0.002144	-0.003974	-0.048838	-0.014677	-0.001395
0.0825000000000001	0.058582	-0.000434	0.087094	-0.003699	-0.002357	-0.0537	-0.015658	-0.002067
0.0830000000000001	0.058189	-0.003284	0.078724	-0.002651	-0.000566	-0.051581	-0.016911	-0.000948
0.0835000000000001	0.049089	-0.006255	0.077246	0.000781	3.4e-05	-0.051896	-0.019648	0.002077
0.0840000000000001	0.03247	-0.006274	0.093234	0.002123	1e-05	-0.054419	-0.022481	0.004842
0.0845000000000001	0.016781	-0.003623	0.10894	0.000321	-0.001397	-0.055907	-0.023047	0.006168
0.0850000000000001	0.009752	-0.001762	0.098967	-0.00086	-0.003822	-0.056031	-0.020663	0.005877
0.0855000000000001	0.008878	-0.002713	0.065859	0.000327	-0.005004	-0.052075	-0.015271	0.004145
0.0860000000000001	0.006236	-0.005018	0.04025	0.001637	-0.004492	-0.035578	-0.006317	0.002759
0.0865000000000001	-0.001142	-0.005002	0.044678	0.00101	-0.003979	-0.004137	0.003759	0.003229
0.0870000000000001	-0.009041	-0.001407	0.070406	-0.001199	-0.004864	0.024959	0.008609	0.004424
0.0875000000000001	-0.009459	0.001984	0.090809	-0.003496	-0.00662	0.027535	0.004634	0.004898
0.0880000000000001	0.000972	0.002381	0.085479	-0.004519	-0.007309	0.002988	-0.004533	0.005387
0.0885000000000001	0.007982	0.002689	0.052078	-0.004104	-0.006066	-0.023685	-0.011729	0.006329
0.0890000000000001	-0.015156	0.004882	0.009318	-0.002779	-0.004727	-0.032762	-0.012181	0.006959
0.0895000000000001	-0.070025	0.005896	-0.016385	-0.002378	-0.00541	-0.025806	-0.0067	0.006963
0.0900000000000001	-0.113445	0.004218	-0.025861	-0.004695	-0.006781	-0.014545	0.000455	0.005629
0.0905000000000001	-0.105773	0.001919	-0.051568	-0.00653	-0.006693	-0.009632	0.006036	0.003228
0.0910000000000001	-0.063885	0.000472	-0.101322	-0.00486	-0.006135	-0.015252	0.008829	0.001935
0.0915000000000001	-0.034261	-3.5e-05	-0.129944	-0.002591	-0.005738	-0.027019	0.008805	0.002454
0.0920000000000001	-0.031421	-8.5e-05	-0.102778	-0.0021	-0.003747	-0.033286	0.006473	0.003739
0.0925000000000001	-0.033505	0.000438	-0.052143	-0.001579	0.000143	-0.01725	0.003583	0.004422
0.0930000000000001	-0.024906	0.002253	-0.031427	0.002026	0.004178	0.031947	0.003496	0.00248
0.0935000000000001	-0.014299	0.004218	-0.04443	0.010616	0.007164	0.101465	0.006953	-0.001766
0.0940000000000001	-0.012749	0.003806	-0.057862	0.021993	0.009162	0.155653	0.009661	-0.003611
0.0945000000000001	-0.014885	0.001233	-0.058015	0.028783	0.010563	0.165405	0.007205	-0.001306
0.0950000000000001	-0.009924	-1e-05	-0.05831	0.025373	0.011008	0.133587	0.000266	0.000305
0.0955000000000001	0.000711	0.001006	-0.063101	0.015091	0.00917	0.086601	-0.005129	-0.001261
0.0960000000000001	0.008491	0.001508	-0.054323	0.004288	0.004966	0.05003	-0.003635	-0.0029
0.0965000000000001	0.010574	0.001521	-0.016147	-0.006327	0.001618	0.032191	0.001288	-0.002682
0.0970000000000001	0.008771	0.003208	0.04247	-0.019922	0.001579	0.021828	0.00129	-0.002315
0.0975000000000001	0.005355	0.004706	0.09286	-0.041248	0.002355	0.004411	-0.003879	-0.003153
0.0980000000000001	0.005717	0.002683	0.10988	-0.074885	0.001799	-0.019694	-0.006789	-0.003908
0.0985000000000001	0.016244	-0.001879	0.092657	-0.11336	0.002237	-0.038469	-0.004047	-0.004039
0.0990000000000001	0.031582	-0.005091	0.063748	-0.132541	0.004536	-0.044812	0.000642	-0.005039
0.0995000000000001	0.033612	-0.004914	0.045016	-0.115483	0.00601	-0.0424	0.002776	-0.007049
0.1	0.013328	-0.003258	0.038767	-0.076578	0.005373	-0.035589	0.002306	-0.007993
0.1005	-0.015587	-0.003318	0.035685	-0.044549	0.003689	-0.021503	0.002916	-0.006553
0.101	-0.033113	-0.004995	0.029763	-0.024357	0.002469	0.002734	0.007298	-0.004792
0.1015	-0.033461	-0.005611	0.020817	0.003666	0.002478	0.029887	0.012963	-0.005281
0.102	-0.022819	-0.004137	0.013141	0.047357	0.003269	0.045937	0.013528	-0.007149
0.1025	-0.007751	-0.001951	0.013399	0.088973	0.00367	0.042481	0.007099	-0.007897
0.103	0.007258	-0.001196	0.023597	0.111816	0.002318	0.023582	5e-05	-0.005779
0.1035	0.019745	-0.002566	0.036806	0.117054	-0.000196	0.00309	-0.000844	-0.001845
0.104	0.02893	-0.003709	0.042703	0.109805	-0.000456	-0.00628	0.003981	2.5e-05
0.1045	0.031759	-0.002301	0.038738	0.092804	0.003034	-0.006455	0.008353	-0.000538
0.105	0.025482	0.000843	0.035749	0.073444	0.006226	-0.012274	0.008261	-0.000568
0.1055	0.01397	0.003791	0.045998	0.058137	0.004648	-0.033156	0.00606	-0.000261
0.106	0.003914	0.005366	0.060367	0.045735	0.000394	-0.063529	0.004961	-0.000608
0.1065	-0.001849	0.005462	0.049301	0.033625	-0.00108	-0.091454	0.004632	-0.000671
0.107	-0.004676	0.004935	-0.002665	0.02323	0.001323	-0.107725	0.003756	-0.000644
0.1075	-0.008254	0.004115	-0.075469	0.018598	0.004276	-0.107193	0.001892	-0.001094
0.108	-0.016355	0.00184	-0.133618	0.019193	0.004517	-0.088149	6.5e-05	-0.000827
0.1085	-0.028234	-0.002059	-0.156144	0.015372	0.002426	-0.050418	0.000642	0.000307
0.109	-0.034984	-0.003997	-0.145918	0.000225	0.000769	0.004176	0.003671	0.000128
0.1095	-0.027404	-0.000799	-0.122131	-0.019093	-0.000347	0.0644	0.005499	-0.001917
0.11	-0.009691	0.004885	-0.106318	-0.031587	-0.002249	0.106522	0.0042	-0.004
0.1105	0.004113	0.007613	-0.107403	-0.034008	-0.004114	0.109107	0.002252	-0.004724
0.111	0.00694	0.005923	-0.116214	-0.028543	-0.005245	0.075566	0.001	-0.004111
0.1115	0.003188	0.003418	-0.113606	-0.019527	-0.006422	0.034373	-0.001581	-0.003256
0.112	0.000642	0.003362	-0.082789	-0.01307	-0.007446	0.011426	-0.006039	-0.003669
0.1125	0.003441	0.004678	-0.02157	-0.01241	-0.007021	0.008713	-0.009722	-0.006279
0.113	0.00885	0.004297	0.048768	-0.013711	-0.004883	0.011702	-0.010359	-0.009246
0.1135	0.01111	0.002088	0.095472	-0.012407	-0.001405	0.00919	-0.009141	-0.010358
0.114	0.008503	0.000361	0.105169	-0.009429	0.00215	0.001111	-0.008365	-0.010382
0.1145	0.004195	-0.000825	0.094276	-0.007131	0.003179	-0.006814	-0.007037	-0.009267
0.115	0.00274	-0.003186	0.081941	-0.006189	0.00231	-0.008089	-0.002761	-0.006941
0.1155	0.004679	-0.006774	0.066987	-0.006588	0.002908	0.000801	0.003312	-0.006156
0.116	0.004833	-0.009667	0.041324	-0.007423	0.003851	0.014939	0.007041	-0.007612
0.1165	0.00064	-0.010456	0.008374	-0.0074	0.001625	0.022928	0.007101	-0.008947
0.117	-0.003028	-0.010103	-0.023913	-0.006739	-0.00224	0.019491	0.006212	-0.008793
0.1175	-0.001935	-0.009244	-0.053809	-0.006714	-0.003775	0.011034	0.005541	-0.007447
0.118	0.002233	-0.006839	-0.080923	-0.008418	-0.003153	0.005358	0.003372	-0.005846
0.1185	0.006982	-0.00267	-0.100201	-0.012537	-0.002642	0.004055	-0.001197	-0.005616
0.119	0.011874	0.002345	-0.106653	-0.014858	-0.002516	0.004533	-0.006401	-0.006979
0.1195	0.015945	0.006737	-0.096833	-0.008933	-0.002708	0.003408	-0.008904	-0.006725
0.12	0.017327	0.009297	-0.057411	0.001575	-0.003173	0.000204	-0.007392	-0.003231
0.1205	0.015178	0.009651	0.030758	0.007688	-0.003176	-0.002941	-0.003805	0.001126
0.121	0.011276	0.007205	0.154073	0.008771	-0.002637	-0.004387	-0.000448	0.004382
0.1215	0.008858	0.002266	0.244919	0.009529	-0.001414	-0.003627	0.000955	0.005367
0.122	0.008534	-0.003	0.231051	0.011187	0.00013	-0.004106	-0.001094	0.003817
0.1225	0.008246	-0.007154	0.107968	0.01073	-0.000212	-0.012751	-0.005844	0.002393
0.123	0.00729	-0.009936	-0.054692	0.006476	-0.002942	-0.028236	-0.009747	0.003302
0.1235	0.006152	-0.010287	-0.176408	0.001202	-0.004958	-0.036226	-0.009836	0.004749
0.124	0.003867	-0.00789	-0.225831	-0.002133	-0.004194	-0.026888	-0.006532	0.00459
0.1245	0.000362	-0.004289	-0.221367	-0.002998	-0.002464	-0.008711	-0.002332	0.003347
0.125	-0.001191	-0.000304	-0.187375	-0.001251	-0.002277	0.004052	0.001264	0.001864
0.1255	0.000916	0.00529	-0.122768	-0.000332	-0.003966	0.007122	0.003658	0.001143
0.126	0.003735	0.013184	-0.005566	-0.012085	-0.00516	0.004817	0.003797	0.002283
0.1265	0.003858	0.019644	0.170458	-0.045955	-0.0033	0.001664	0.002128	0.004039
0.127	0.000969	0.020434	0.347583	-0.091798	0.000188	-0.000805	0.000846	0.00456
0.1275	-0.002675	0.01775	0.422028	-0.126435	0.002246	-0.002349	0.000577	0.004738
0.128	-0.004511	0.015208	0.354734	-0.136866	0.002078	-0.003888	0.000146	0.006347
0.1285	-0.004414	0.011999	0.227364	-0.127113	0.00059	-0.006026	-0.000928	0.007484
0.129	-0.004682	0.006765	0.133559	-0.104347	4.9e-05	-0.007381	-0.001344	0.004598
0.1295	-0.006623	0.000104	0.069456	-0.069071	0.001351	-0.009843	0.000347	-1.5e-05
0.13	-0.009379	-0.00607	-0.00663	-0.022559	0.001971	-0.018162	0.002565	0.000297
0.1305	-0.011886	-0.008887	-0.080373	0.02672	-2.6e-05	-0.030476	0.001886	0.006214
0.131	-0.013289	-0.007716	-0.118584	0.068396	-0.00337	-0.03923	-0.001245	0.011012
0.1315	-0.013057	-0.005554	-0.135035	0.095831	-0.005102	-0.041351	-0.001929	0.010723
0.132	-0.011384	-0.004582	-0.156821	0.107968	-0.003259	-0.038769	0.002846	0.008399
0.1325	-0.008067	-0.003896	-0.171794	0.107343	0.00078	-0.029796	0.009991	0.007114
0.133	-0.003871	-0.002783	-0.15401	0.096914	0.00354	-0.009883	0.013976	0.00682
0.1335	-0.001649	-0.002977	-0.109611	0.079731	0.003169	0.015614	0.01294	0.007823
0.134	-0.00127	-0.006401	-0.070034	0.058672	0.000776	0.029232	0.008647	0.009697
0.1345	0.000919	-0.012216	-0.055728	0.039191	-0.000602	0.019275	0.003566	0.0099
0.135	0.004986	-0.017042	-0.05732	0.030516	0.000992	-0.004551	9.4e-05	0.007429
0.1355	0.007425	-0.01735	-0.049378	0.036045	0.003682	-0.018941	-0.000798	0.004314
0.136	0.007279	-0.012674	-0.02125	0.046911	0.004588	-0.012232	-0.00113	0.002941
0.1365	0.006544	-0.007101	0.012176	0.051142	0.003274	0.00335	-0.004319	0.003752
0.137	0.006647	-0.004527	0.034328	0.044171	0.001149	0.010714	-0.010833	0.005438
0.1375	0.0074	-0.003954	0.050001	0.028836	6.3e-05	0.007815	-0.016251	0.005906
0.138	0.007309	-0.004015	0.0702	0.012242	0.00051	0.00178	-0.01535	0.004703
0.1385	0.00497	-0.006022	0.083385	0.001872	0.001962	-0.000584	-0.008599	0.0038
0.139	0.001716	-0.009225	0.070672	0.000399	0.004155	0.005823	-0.002011	0.003651
0.1395	0.000124	-0.010274	0.045713	0.004745	0.006195	0.01933	0.000843	0.002859
0.14	0.000532	-0.007379	0.043458	0.008648	0.007089	0.030775	0.00129	0.000805
0.1405	0.000809	-0.001997	0.071541	0.007268	0.006227	0.032032	0.000771	-0.001494
0.141	-0.001174	0.003717	0.104184	-2.8e-05	0.003494	0.022493	-0.000367	-0.001896
0.1415	-0.00427	0.009845	0.119979	-0.01024	0.000474	0.008943	-0.001309	-0.000873
0.142	-0.005027	0.016418	0.123886	-0.017924	-0.00049	-0.000925	0.000197	-0.001664
0.1425	-0.003051	0.020226	0.135852	-0.020381	0.001156	-0.003995	0.006103	-0.004187
0.143	-0.002495	0.017608	0.161108	-0.019648	0.002729	-0.001107	0.013293	-0.004556
0.1435	-0.006058	0.010759	0.161269	-0.017829	0.001692	0.003698	0.015528	-0.002709
0.144	-0.010369	0.006415	0.078219	-0.016965	-0.000511	0.00558	0.010926	-0.002243
0.1445	-0.010999	0.006802	-0.081692	-0.023273	-0.001588	0.004181	0.003508	-0.003003
0.145	-0.00821	0.008299	-0.223829	-0.046569	-0.001106	0.003926	-0.000324	-0.003262
0.1455	-0.004986	0.008106	-0.269562	-0.088039	-0.000108	0.008687	0.001815	-0.003353
0.146	-0.00275	0.006824	-0.24409	-0.129711	-0.000299	0.017055	0.004251	-0.003112
0.1465	-0.000362	0.005102	-0.220227	-0.148123	-0.001267	0.02217	0.000301	-0.002224
0.147	0.00347	0.001945	-0.229706	-0.137578	-0.00085	0.018675	-0.008827	-0.001915
0.1475	0.008215	-0.001919	-0.271288	-0.108455	0.001782	0.009993	-0.015383	-0.003437
0.148	0.012281	-0.003768	-0.338663	-0.06599	0.005	0.003415	-0.014157	-0.005944
0.1485	0.014611	-0.002817	-0.397542	-0.007697	0.005767	0.001204	-0.008079	-0.00732
0.149	0.015157	-0.000972	-0.395443	0.059114	0.003664	0.001051	-0.002904	-0.005798
0.1495	0.014442	-7.8e-05	-0.314402	0.112691	0.001566	0.001165	-0.0001	-0.002067
0.15	0.013045	-9.3e-05	-0.167817	0.134493	0.000514	0.002404	0.002316	-6.5e-05
0.1505	0.010815	-0.000715	0.034961	0.126791	-0.00064	0.004949	0.004724	-0.000859
0.151	0.007952	-0.001785	0.260275	0.105558	-0.001084	0.006645	0.005078	-0.001692
0.1515	0.005573	-0.001061	0.414595	0.082722	0.000471	0.006553	0.002869	-0.002303
0.152	0.003394	0.003398	0.420151	0.063827	0.002283	0.004919	0.000241	-0.00326
0.1525	0.000406	0.00768	0.320099	0.051513	0.002464	0.002065	-0.000695	-0.003488
0.153	-0.003502	0.005358	0.234023	0.044825	0.00215	-0.000435	-0.000384	-0.00283
0.1535	-0.007837	-0.002245	0.216205	0.040127	0.002666	-0.001238	-0.00096	-0.001974
0.154	-0.011091	-0.007461	0.220298	0.032178	0.002687	-0.001017	-0.002698	-0.001234
0.1545	-0.01165	-0.00696	0.187594	0.013772	0.000387	-0.001137	-0.00366	-0.001293
0.155	-0.009861	-0.003983	0.11392	-0.018726	-0.002736	-0.001402	-0.002079	-0.003208
0.1555	-0.008647	-0.002963	0.039131	-0.056115	-0.003773	-0.001164	0.001206	-0.005811
0.156	-0.009467	-0.003655	0.007224	-0.081385	-0.002803	-0.001122	0.00302	-0.006917
0.1565	-0.009405	-0.001966	0.029194	-0.087107	-0.001478	-0.002031	0.001852	-0.007205
0.157	-0.006644	0.001667	0.071562	-0.080771	-0.000793	-0.004745	-0.001596	-0.007549
0.1575	-0.003151	0.002836	0.090429	-0.072999	-0.000727	-0.009997	-0.005679	-0.00739
0.158	-0.000159	0.002083	0.072122	-0.065181	7.2e-05	-0.014792	-0.006211	-0.007664
0.1585	0.002009	0.003462	0.032635	-0.050775	0.001976	-0.015039	-0.000774	-0.008386
0.159	0.000822	0.006756	-0.009251	-0.02777	0.003338	-0.013597	0.003874	-0.006989
0.1595	-0.004915	0.00847	-0.044927	-0.004006	0.003172	-0.016756	-0.001509	-0.004247
0.16	-0.010752	0.007505	-0.069197	0.012169	0.001934	-0.024446	-0.014142	-0.003875
0.1605	-0.012211	0.00518	-0.078993	0.021135	3.5e-05	-0.030636	-0.020632	-0.004938
0.161	-0.010547	0.002325	-0.08117	0.028111	-0.001519	-0.029381	-0.014252	-0.004431
0.1615	-0.009	-0.001964	-0.088467	0.034515	-0.001151	-0.018728	-0.003943	-0.002594
0.162	-0.00881	-0.009254	-0.102528	0.038532	0.00049	-0.002123	-0.001202	-0.000577
0.1625	-0.00991	-0.017495	-0.106802	0.039649	0.001345	0.011942	-0.004457	0.000246
0.163	-0.011261	-0.021258	-0.085607	0.038456	0.000425	0.013395	-0.005089	-0.000737
0.1635	-0.010761	-0.020092	-0.047468	0.035501	-0.002654	-0.001722	-0.001239	-0.001844
0.164	-0.007623	-0.020513	-0.016329	0.032138	-0.006488	-0.023831	0.002739	-0.001821
0.1645	-0.003424	-0.026727	-0.004086	0.029844	-0.007743	-0.03311	0.004132	-0.001352
0.165	0.000516	-0.035641	-0.004646	0.02778	-0.005253	-0.019096	0.003973	-0.002138
0.1655	0.003589	-0.042066	-0.008067	0.024544	-0.001553	0.003986	0.003613	-0.004224
0.166	0.005089	-0.043415	-0.01032	0.020571	-0.000172	0.010013	0.002598	-0.00467
0.1665	0.005709	-0.0397	-0.012273	0.015452	-0.002455	-0.011155	0.001357	-0.001417
0.167	0.006505	-0.031669	-0.013923	0.006738	-0.005851	-0.040792	0.001903	0.003542
0.1675	0.006763	-0.017542	-0.012569	-0.005441	-0.007082	-0.048457	0.004067	0.006113
0.168	0.005269	0.006171	-0.00702	-0.01603	-0.007414	-0.023354	0.006285	0.005166
0.1685	0.003346	0.035429	0.000444	-0.021515	-0.009538	0.016236	0.008061	0.003603
0.169	0.00509	0.054631	0.007278	-0.023014	-0.011979	0.042385	0.008789	0.003186
0.1695	0.010929	0.052105	0.013106	-0.019995	-0.01282	0.0427	0.008535	0.00366
0.17	0.014762	0.037376	0.017134	-0.010294	-0.012666	0.030207	0.00918	0.005463
0.1705	0.0123	0.030247	0.015041	0.003059	-0.011172	0.026625	0.012497	0.007549
0.171	0.00669	0.034192	0.004146	0.012687	-0.007417	0.036668	0.017204	0.007653
0.1715	0.002958	0.034801	-0.009807	0.014895	-0.003344	0.045512	0.018188	0.00665
0.172	0.002269	0.023832	-0.016824	0.012415	-0.001531	0.040313	0.011777	0.006057
0.1725	0.003708	0.010276	-0.012299	0.009316	-0.000737	0.025776	0.002018	0.005275
0.173	0.006549	0.005095	-0.001546	0.006453	0.001059	0.013802	-0.002897	0.005202
0.1735	0.00935	0.007534	0.00544	0.000569	0.001886	0.007388	-0.000824	0.006678
0.174	0.010011	0.010548	0.004662	-0.010088	-0.000256	0.003003	0.003316	0.008296
0.1745	0.007643	0.011009	0.000708	-0.020011	-0.002947	8.3e-05	0.004702	0.009703
0.175	0.004812	0.01109	0.000156	-0.023272	-0.003327	0.000161	0.001266	0.010635
0.1755	0.004265	0.012428	0.005877	-0.020748	-0.001855	0.001764	-0.005203	0.010028
0.176	0.003335	0.012677	0.015477	-0.016347	-8.1e-05	0.002406	-0.008581	0.008361
0.1765	-0.001746	0.008938	0.023941	-0.012248	0.001036	0.001837	-0.005084	0.006848
0.177	-0.008973	0.002653	0.027398	-0.008973	0.001681	0.000735	0.001434	0.005788
0.1775	-0.013169	-0.001205	0.021597	-0.006724	0.002976	-0.000293	0.004841	0.004904
0.178	-0.011791	-0.001556	-0.000345	-0.006235	0.003886	-0.001056	0.003884	0.004512
0.1785	-0.005643	-0.001729	-0.040917	-0.009574	0.002595	-0.001852	0.001095	0.004365
0.179	0.002027	-0.00247	-0.089912	-0.015986	0.000528	-0.002667	-0.001048	0.003869
0.1795	0.005653	-0.002838	-0.129063	-0.018743	0.00021	-0.003051	-0.000899	0.004561
0.18	0.003361	-0.002822	-0.144735	-0.013251	0.002059	-0.002878	0.00141	0.005913
0.1805	0.00121	-0.002003	-0.135318	-0.003735	0.00423	-0.003096	0.0042	0.004356
0.181	0.004615	-0.000866	-0.107274	0.000554	0.004714	-0.004164	0.006256	0.000997
0.1815	0.010973	-0.000513	-0.061495	-0.006639	0.003762	-0.004322	0.0065	-0.000582
0.182	0.013998	-0.000591	0.015692	-0.021583	0.002623	-0.00235	0.004509	-0.001508
0.1825	0.01097	-0.00078	0.132704	-0.032383	0.001509	-0.000434	0.002284	-0.00299
0.183	0.004876	-0.001147	0.253648	-0.031038	0.00052	-0.000637	0.001799	-0.003277
0.1835	0.000495	-0.000853	0.303386	-0.021869	0.000738	-0.00185	0.002565	-0.003381
0.184	-0.000982	-0.000308	0.241171	-0.014529	0.002384	-0.002804	0.002833	-0.004831
0.1845	-0.002019	-0.00188	0.116527	-0.012576	0.003293	-0.003267	0.000907	-0.004849
0.185	-0.003849	-0.006227	0.021525	-0.012308	0.002176	-0.003036	-0.001924	-0.002571
0.1855	-0.005173	-0.010725	-0.004714	-0.007673	0.001453	-0.003032	-0.001001	-0.001412
0.186	-0.004746	-0.012445	0.00425	0.004521	0.003675	-0.00368	0.0046	-0.001805
0.1865	-0.001664	-0.01204	0.00512	0.020633	0.007363	-0.003549	0.009568	-0.000649
0.187	0.003568	-0.012427	-0.011256	0.032006	0.009223	-0.003125	0.009069	0.002571
0.1875	0.007305	-0.0138	-0.036264	0.033277	0.008248	-0.004775	0.003501	0.005071
0.188	0.006597	-0.014116	-0.065708	0.027604	0.005692	-0.007959	-0.002725	0.005591
0.1885	0.003701	-0.01299	-0.094881	0.020921	0.003731	-0.009582	-0.005862	0.005482
0.189	0.002789	-0.012332	-0.111203	0.016095	0.003929	-0.008465	-0.005681	0.005545
0.1895	0.00385	-0.013195	-0.106109	0.014301	0.004494	-0.00623	-0.003302	0.006339
0.19	0.00403	-0.0127	-0.092406	0.015622	0.002986	-0.004109	0.000597	0.008609
0.1905	0.002956	-0.008626	-0.08958	0.018809	0.001758	-0.001644	0.004637	0.011421
0.191	0.002247	-0.004289	-0.081381	0.021864	0.003881	0.000953	0.005888	0.012555
0.1915	0.001584	-0.002968	-0.016882	0.023697	0.006533	0.000919	0.002142	0.010663
0.192	-9.1e-05	-0.002995	0.119507	0.02526	0.005684	-0.003572	-0.004783	0.007689
0.1925	-0.001523	-0.000974	0.252184	0.025235	0.003343	-0.008221	-0.010103	0.007006
0.193	-0.002079	0.003121	0.26005	0.020111	0.00387	-0.007452	-0.010153	0.008702
0.1935	-0.003969	0.006187	0.105577	0.010538	0.006927	-0.002889	-0.005685	0.01009
0.194	-0.008117	0.00702	-0.086761	0.000712	0.008593	0.000148	-0.001404	0.008724
0.1945	-0.011903	0.006297	-0.135486	-0.006286	0.007186	0.000692	-2.1e-05	0.004534
0.195	-0.013314	0.004148	-0.011174	-0.008611	0.004821	0.001139	-5.5e-05	-0.000118
0.1955	-0.01391	0.001193	0.12175	-0.005489	0.00351	0.001531	-0.000622	-0.003896
0.196	-0.014716	-0.001753	0.110364	-0.000122	0.00297	-0.00019	-0.002804	-0.006835
0.1965	-0.014414	-0.004628	-0.011667	0.002998	0.002423	-0.003604	-0.006656	-0.007166
0.197	-0.012891	-0.006775	-0.104864	0.003121	0.001928	-0.005692	-0.009852	-0.0041
0.1975	-0.010787	-0.006972	-0.106758	0.000931	0.001343	-0.004997	-0.009344	-0.00174
0.198	-0.008322	-0.006017	-0.064783	-0.001763	-0.000148	-0.003852	-0.004475	-0.002821
0.1985	-0.006578	-0.005878	-0.035091	-0.002374	-0.001683	-0.004918	0.001959	-0.004599
0.199	-0.006616	-0.006334	-0.023722	-0.001846	-0.001367	-0.006917	0.00687	-0.005318
0.1995	-0.008176	-0.005747	-0.012757	-0.001386	1.9e-05	-0.006721	0.010022	-0.006524
0.2	-0.010145	-0.00354	0.010995	-1.2e-05	0.000357	-0.003462	0.012463	-0.008194
0.2005	-0.011192	-0.000598	0.048241	0.000822	-0.001014	0.001329	0.014306	-0.007244
0.201	-0.009882	0.001835	0.081335	-0.002017	-0.003471	0.005925	0.015024	-0.003047
0.2015	-0.006101	0.003414	0.089226	-0.008379	-0.005711	0.009511	0.014246	-0.000584
0.202	-0.001878	0.004283	0.077847	-0.015861	-0.006544	0.011678	0.012583	-0.003995
0.2025	0.000604	0.005258	0.074417	-0.022625	-0.005781	0.011557	0.010976	-0.010316
0.203	0.000944	0.007494	0.082154	-0.025154	-0.004834	0.008295	0.00774	-0.012832
0.2035	0.00089	0.009543	0.062586	-0.020591	-0.004984	0.00352	-0.0025	-0.010604
0.204	0.00197	0.008814	-0.022451	-0.011593	-0.005683	0.000607	-0.023562	-0.009225
0.2045	0.003628	0.005694	-0.154415	-0.001712	-0.006526	0.000304	-0.05111	-0.009761
0.205	0.00515	0.002365	-0.25125	0.007477	-0.007262	0.000373	-0.078431	-0.008352
0.2055	0.00632	0.000434	-0.239741	0.01351	-0.006677	-0.000498	-0.111238	-0.005757
0.206	0.006643	0.000449	-0.138079	0.014396	-0.004823	-0.001027	-0.16332	-0.00498
0.2065	0.005793	0.000688	-0.034164	0.010124	-0.003627	-0.000401	-0.230225	-0.005201
0.207	0.004711	-0.000394	0.016751	0.001376	-0.003864	-4e-06	-0.282262	-0.005498
0.2075	0.005958	-0.000958	0.030977	-0.00823	-0.00399	-0.000747	-0.289307	-0.006973
0.208	0.009247	0.000255	0.033415	-0.011073	-0.003323	-0.002555	-0.236778	-0.008399
0.2085	0.010683	0.002274	0.011957	-0.00475	-0.003233	-0.005115	-0.127648	-0.007356
0.209	0.009881	0.004706	-0.041291	0.003048	-0.004153	-0.005988	0.004791	-0.005506
0.2095	0.009238	0.006509	-0.087242	0.005237	-0.004368	-0.001898	0.114062	-0.006034
0.21	0.008334	0.006112	-0.07399	0.002569	-0.00205	0.006776	0.202492	-0.007834
0.2105	0.006009	0.004233	-0.001727	-0.00139	0.001848	0.016449	0.318776	-0.007584
0.211	0.003353	0.002617	0.067425	-0.004972	0.004431	0.024071	0.45446	-0.005033
0.2115	0.002275	0.001077	0.071329	-0.007898	0.004806	0.02746	0.501864	-0.002651
0.212	0.004116	-0.001514	0.011403	-0.009887	0.004327	0.025612	0.376004	-0.002836
0.2125	0.008562	-0.004818	-0.055513	-0.010902	0.003854	0.020494	0.141256	-0.005744
0.213	0.012691	-0.006967	-0.0801	-0.01059	0.003004	0.014196	-0.041807	-0.007773
0.2135	0.01463	-0.005668	-0.062572	-0.007887	0.001718	0.006968	-0.077741	-0.006451
0.214	0.015836	-0.000898	-0.035439	-0.004093	0.000174	-0.000332	-0.00913	-0.004781
0.2145	0.016251	0.003827	-0.021559	-0.002777	-0.001823	-0.007584	0.051279	-0.005167
0.215	0.01351	0.005378	-0.020068	-0.004491	-0.002925	-0.015062	0.035414	-0.006222
0.2155	0.008036	0.00396	-0.021705	-0.006191	-0.001217	-0.020016	-0.027096	-0.006968
0.216	0.002839	0.001287	-0.022336	-0.006251	0.002099	-0.019832	-0.060967	-0.007291
0.2165	-0.000712	-0.001622	-0.020667	-0.005914	0.003862	-0.016216	-0.037131	-0.006384
0.217	-0.003632	-0.004318	-0.011738	-0.005767	0.003424	-0.012973	0.006371	-0.003713
0.2175	-0.006652	-0.00567	0.008116	-0.00542	0.002814	-0.011511	0.025434	-0.001045
0.218	-0.008678	-0.004891	0.033418	-0.006309	0.00253	-0.011249	0.017529	-0.001114
0.2185	-0.008479	-0.003264	0.05358	-0.008853	0.001498	-0.01232	0.005524	-0.003186
0.219	-0.006506	-0.001555	0.061016	-0.009216	0.00035	-0.013397	0.004317	-0.004482
0.2195	-0.004318	0.00134	0.055748	-0.006092	-3e-05	-0.010484	0.013589	-0.005184
0.22	-0.00316	0.004496	0.045281	-0.004204	-0.000529	-0.002987	0.025774	-0.007313
0.2205	-0.003277	0.004425	0.035421	-0.004447	-0.001664	0.003295	0.031216	-0.009946
0.221	-0.003485	0.000519	0.023796	-0.00315	-0.002206	0.004239	0.022455	-0.009614
0.2215	-0.002754	-0.0033	0.008291	-0.001787	-0.00107	0.001828	-0.000538	-0.005241
0.222	-0.002267	-0.003925	-0.004962	-0.002916	0.000688	-0.001314	-0.030506	0.000861
0.2225	-0.002534	-0.001706	-0.00854	-0.004467	0.001193	-0.003657	-0.056524	0.004628
0.223	-0.00217	0.002396	-0.003327	-0.005026	0.000459	-0.003824	-0.06668	0.003336
0.2235	-0.00152	0.007168	0.004569	-0.006751	-0.000252	-0.002373	-0.057054	0.000579
0.224	-0.001877	0.009425	0.012619	-0.015847	-0.000737	-0.00077	-0.041229	0.001329
0.2245	-0.002881	0.006621	0.023364	-0.037554	-0.001588	0.001269	-0.042468	0.003348
0.225	-0.004032	0.000977	0.03851	-0.06335	-0.002734	0.00406	-0.076303	0.002801
0.2255	-0.005351	-0.002742	0.051398	-0.07451	-0.003948	0.005431	-0.142506	0.0016
0.226	-0.006333	-0.003123	0.050159	-0.064821	-0.005332	0.003974	-0.217734	0.002418
0.2265	-0.007019	-0.00213	0.034985	-0.044729	-0.00656	0.00153	-0.245696	0.004624
0.227	-0.008145	-0.00165	0.023564	-0.022534	-0.007703	4.1e-05	-0.175666	0.007072
0.2275	-0.008896	-0.001476	0.028293	0.00103	-0.008805	0.000278	-0.045111	0.007742
0.228	-0.00775	0.000451	0.037204	0.025091	-0.008716	0.00194	0.034934	0.004926
0.2285	-0.005288	0.00377	0.032611	0.047114	-0.007197	0.003449	0.02387	0.002229
0.229	-0.003362	0.005333	0.018828	0.062937	-0.00532	0.004186	0.005152	0.00414
0.2295	-0.002154	0.004311	0.012767	0.067555	-0.003956	0.003983	0.043578	0.008451
0.23	-0.000552	0.002598	0.017296	0.059944	-0.004198	0.002113	0.079653	0.010434
0.2305	0.000869	0.002153	0.021108	0.045479	-0.00622	1.3e-05	0.035874	0.009443
0.231	0.000696	0.003322	0.018012	0.032272	-0.007736	-3.3e-05	-0.054661	0.006652
0.2315	-0.000953	0.003986	0.013111	0.026915	-0.007123	0.001038	-0.105705	0.00314
0.232	-0.003767	0.002708	0.011609	0.031576	-0.005567	0.000995	-0.101229	0.002019
0.2325	-0.006668	0.001203	0.012324	0.041742	-0.003607	0.000397	-0.082688	0.005144
0.233	-0.007072	0.000834	0.012612	0.051605	-0.001122	0.000257	-0.052557	0.009441
0.2335	-0.005175	0.000624	0.011312	0.058833	-0.00036	-0.000671	0.027468	0.010781
0.234	-0.003056	0.000259	0.007697	0.059857	-0.002393	-0.002098	0.143559	0.008647
0.2345	-0.000324	0.000673	0.002544	0.052116	-0.004312	-0.001733	0.210406	0.005578
0.235	0.003035	0.000987	-0.001604	0.041846	-0.003899	0.000525	0.178505	0.004037
0.2355	0.005823	-0.000627	-0.003626	0.038029	-0.002178	0.002867	0.104814	0.004883
0.236	0.008716	-0.002493	-0.004798	0.040763	3.4e-05	0.004109	0.068584	0.006589
0.2365	0.011456	-0.001165	-0.006365	0.043231	0.003086	0.00377	0.06615	0.006983
0.237	0.011276	0.002434	-0.008271	0.040207	0.005447	0.001576	0.046802	0.006553
0.2375	0.007534	0.004621	-0.009275	0.03065	0.00512	-0.001694	0.006458	0.005856
0.238	0.002875	0.004394	-0.008657	0.01874	0.003063	-0.004056	-0.018768	0.004199
0.2385	0.000338	0.002572	-0.007933	0.010914	0.001537	-0.004087	-0.021424	0.003208
0.239	0.001235	7e-05	-0.0088	0.00732	0.002198	-0.002667	-0.025986	0.00419
0.2395	0.004076	-0.001709	-0.010535	-0.00033	0.00529	-0.001558	-0.035109	0.005103
0.24	0.006501	-0.002588	-0.011501	-0.023182	0.008345	-0.000514	-0.02021	0.004631
0.2405	0.007597	-0.004034	-0.011311	-0.064619	0.008424	0.00116	0.028462	0.004015
0.241	0.006642	-0.00667	-0.010565	-0.108611	0.005947	0.002138	0.073826	0.004138
0.2415	0.002816	-0.009543	-0.010294	-0.128138	0.004219	0.001606	0.07335	0.004196
0.242	-0.001947	-0.011054	-0.01052	-0.114268	0.00473	0.00118	0.032917	0.002901
0.2425	-0.004214	-0.009584	-0.009344	-0.084882	0.005734	0.001922	-0.004048	-0.00037
0.243	-0.003689	-0.004951	-0.005856	-0.057964	0.006433	0.002808	-0.012047	-0.004194
0.2435	-0.002356	0.000624	-0.002145	-0.032171	0.007774	0.003052	-0.004232	-0.005263
0.244	-0.001465	0.004909	-0.000243	-0.00086	0.009214	0.002395	-0.001826	-0.002687
0.2445	-0.00137	0.007815	0.000228	0.030941	0.009427	0.000319	-0.006509	0.000115
0.245	-0.001864	0.009045	-0.000508	0.052631	0.008425	-0.001802	-0.009826	0.000702
0.2455	-0.002735	0.006515	-0.003112	0.061293	0.00692	-0.001933	-0.011533	0.00062
0.246	-0.003976	0.000548	-0.006068	0.061945	0.006063	-0.001512	-0.017548	0.001141
0.2465	-0.005146	-0.003603	-0.007521	0.05903	0.006424	-0.002761	-0.027851	0.000834
0.247	-0.005373	-0.00243	-0.00854	0.053336	0.006085	-0.005866	-0.03351	-0.001274
0.2475	-0.004004	0.000713	-0.009825	0.045769	0.003913	-0.010495	-0.028702	-0.003185
0.248	-0.001002	0.001485	-0.009854	0.038119	0.001916	-0.014235	-0.020653	-0.003245
0.2485	0.002526	0.000333	-0.007994	0.02902	0.000971	-0.013664	-0.020144	-0.003005
0.249	0.004486	-0.000339	-0.005966	0.014701	-0.000749	-0.009398	-0.02719	-0.003525
0.2495	0.004502	-0.000986	-0.005736	-0.004668	-0.004304	-0.005112	-0.031336	-0.003785
0.25	0.005177	-0.002917	-0.006157	-0.024447	-0.006947	-0.002704	-0.024791	-0.00374
0.2505	0.007669	-0.004415	-0.003978	-0.038914	-0.004956	-0.001747	-0.010421	-0.003742
0.251	0.008985	-0.003549	0.000621	-0.042847	0.000199	-0.001322	0.00521	-0.003162
0.2515	0.00709	-0.001076	0.003289	-0.035809	0.003313	-0.000543	0.015579	-0.002725
0.252	0.00361	0.000714	0.001599	-0.022992	0.001582	0.000476	0.010156	-0.00363
0.2525	0.000127	0.000784	-0.002589	-0.011128	-0.002718	0.001701	-0.015288	-0.004722
0.253	-0.002156	0.001276	-0.007569	-0.006572	-0.004508	0.004357	-0.042593	-0.004655
0.2535	-0.001916	0.003748	-0.012838	-0.010831	-0.001819	0.008013	-0.044601	-0.0038
0.254	-0.000588	0.006264	-0.016323	-0.016899	0.001692	0.010293	-0.018848	-0.00247
0.2545	-0.000674	0.006465	-0.015944	-0.01727	0.001314	0.009884	0.008171	-0.000478
0.255	-0.001592	0.004573	-0.013158	-0.014299	-0.00229	0.00736	0.011106	0.001722
0.2555	-0.001967	0.002977	-0.01184	-0.014756	-0.004306	0.004289	-0.015472	0.00409
0.256	-0.002612	0.002649	-0.01291	-0.01865	-0.002694	0.00257	-0.062784	0.006948
0.2565	-0.003937	0.001751	-0.012986	-0.021532	0.000473	0.003	-0.10833	0.008866
0.257	-0.004726	-0.001158	-0.010418	-0.020925	0.00162	0.003697	-0.111023	0.009075
0.2575	-0.004084	-0.004473	-0.007875	-0.01847	-0.000644	0.003505	-0.040015	0.008919
0.258	-0.00252	-0.004764	-0.007875	-0.017501	-0.002471	0.004416	0.073146	0.008649
0.2585	-0.001871	-0.001281	-0.009445	-0.017001	-0.000322	0.006566	0.140395	0.008434
0.259	-0.00308	0.001955	-0.008932	-0.014382	0.003174	0.007436	0.102143	0.009697
0.2595	-0.004739	0.000526	-0.004501	-0.010707	0.004526	0.006263	-0.012052	0.012212
0.26	-0.004849	-0.005551	0.000365	-0.007879	0.004745	0.003735	-0.123103	0.013321
0.2605	-0.003649	-0.012395	0.001359	-0.005918	0.005044	0.001356	-0.174924	0.010808
0.261	-0.003468	-0.014876	-3.1e-05	-0.003997	0.004076	0.000801	-0.149535	0.006294
0.2615	-0.004432	-0.011054	-1.9e-05	-0.00289	0.001884	0.000779	-0.046739	0.004395
0.262	-0.00424	-0.006266	0.000685	-0.003235	0.000359	-0.000378	0.107325	0.006606
0.2625	-0.002492	-0.006352	-0.000151	-0.003136	0.000775	-0.000199	0.241323	0.008113
0.263	-0.001253	-0.008934	-0.001194	-0.001234	0.002462	0.003326	0.276523	0.004866
0.2635	-0.002312	-0.007863	0.000203	0.001454	0.002821	0.007012	0.206915	-0.000366
0.264	-0.004804	-0.001665	0.003457	0.003226	0.001545	0.007347	0.11518	-0.003683
0.2645	-0.005807	0.005694	0.005079	0.003161	0.001237	0.004823	0.07769	-0.004789
0.265	-0.00385	0.00981	0.003897	0.001709	0.002117	0.001798	0.074444	-0.00521
0.2655	-0.000999	0.008643	0.002415	0.001207	0.002127	-0.000636	0.033677	-0.006739
0.266	0.00014	0.003006	0.002412	0.003387	0.001339	-0.002928	-0.058089	-0.010056
0.2665	0.000495	-0.002937	0.003346	0.006551	0.001338	-0.004912	-0.144	-0.013988
0.267	0.001719	-0.005677	0.004116	0.007897	0.00238	-0.005605	-0.177464	-0.015986
0.2675	0.002131	-0.005511	0.004055	0.006008	0.004035	-0.004957	-0.162314	-0.014668
0.268	0.000116	-0.003691	0.002891	0.002814	0.004869	-0.004563	-0.117911	-0.011914
0.2685	-0.001898	-0.000293	0.001142	0.001872	0.002811	-0.005248	-0.051161	-0.01005
0.269	-0.001556	0.004036	0.000926	0.002749	-0.000344	-0.005006	0.024404	-0.008969
0.2695	-0.001566	0.006364	0.003568	0.003348	-0.000411	-0.0033	0.080939	-0.006852
0.27	-0.004643	0.004773	0.008109	0.003034	0.00247	-0.001801	0.109418	-0.003389
0.2705	-0.008109	0.001717	0.013152	0.001146	0.004311	-6.6e-05	0.126906	-0.001105
0.271	-0.008627	0.000673	0.015765	-0.000493	0.003452	0.001602	0.137672	-0.000718
0.2715	-0.006278	0.002155	0.012659	0.0012	0.002454	0.001026	0.1284	0.000433
0.272	-0.002367	0.004153	0.0057	0.00425	0.003289	-0.000761	0.108084	0.003018
0.2725	0.00169	0.003765	0.000686	0.0042	0.003916	-0.000972	0.102962	0.005346
0.273	0.00467	-0.000267	-0.000768	0.000783	0.002155	6.4e-05	0.107569	0.007279
0.2735	0.007175	-0.005224	-0.004394	-0.004277	0.000281	0.000119	0.090043	0.007807
0.274	0.009872	-0.007328	-0.016217	-0.010273	0.001326	-0.000898	0.046315	0.004795
0.2745	0.011602	-0.006173	-0.034121	-0.014769	0.003064	-0.000966	0.003835	0.000568
0.275	0.011654	-0.003758	-0.048514	-0.015527	0.001714	0.000467	-0.024875	-0.001158
0.2755	0.010196	-0.001809	-0.050737	-0.013812	-0.002437	0.001583	-0.050765	-0.000838
0.276	0.007479	-0.001014	-0.038873	-0.011492	-0.006716	0.001165	-0.071553	-0.000311
0.2765	0.004548	-0.000196	-0.015044	-0.01021	-0.008788	0.000517	-0.063281	-5.1e-05
0.277	0.001952	0.002575	0.01989	-0.01195	-0.008489	0.001307	-0.01791	0.001319
0.2775	-0.000196	0.006811	0.063452	-0.015568	-0.007609	0.003122	0.03338	0.004856
0.278	-0.00088	0.010209	0.100622	-0.015519	-0.007061	0.004416	0.046041	0.007663
0.2785	-0.000372	0.011525	0.109551	-0.00785	-0.007148	0.003885	0.003333	0.007138
0.279	-0.000285	0.010589	0.092204	0.003513	-0.008046	0.002272	-0.070161	0.005491
0.2795	-0.000517	0.008137	0.078036	0.011794	-0.008297	0.002737	-0.12703	0.00452
0.28	0.000338	0.005951	0.075594	0.016631	-0.007222	0.005895	-0.128808	0.002758
0.2805	0.00266	0.004331	0.049733	0.021812	-0.006913	0.008158	-0.076213	0.000101
0.281	0.005179	0.001663	-0.022952	0.027203	-0.008252	0.007178	-0.016812	-0.001645
0.2815	0.005725	-0.002334	-0.105099	0.029063	-0.008822	0.004472	-0.00729	-0.001862
0.282	0.003758	-0.00625	-0.13945	0.026831	-0.007199	0.002152	-0.056684	-0.000875
0.2825	0.002058	-0.008402	-0.116939	0.024133	-0.005535	0.00047	-0.117192	0.000543
0.283	0.002987	-0.007061	-0.07418	0.022769	-0.005199	-0.001184	-0.136993	0.000883
0.2835	0.005215	-0.00268	-0.042732	0.020434	-0.004544	-0.003466	-0.111167	-0.000862
0.284	0.006331	0.001382	-0.027623	0.015591	-0.004385	-0.00632	-0.074405	-0.003352
0.2845	0.00555	0.003121	-0.021469	0.010548	-0.007567	-0.007554	-0.054709	-0.003691
0.285	0.003698	0.003506	-0.016909	0.00793	-0.011918	-0.00518	-0.049613	-0.001804
0.2855	0.00204	0.00329	-0.008405	0.007734	-0.013185	-0.001563	-0.043733	-0.0007
0.286	0.001292	0.003114	0.006227	0.007378	-0.010829	-0.000712	-0.024915	-0.001805
0.2865	0.00114	0.004558	0.024517	0.003679	-0.006481	-0.002484	0.017679	-0.003208
0.287	0.000488	0.005852	0.041746	-0.002096	-0.00229	-0.003655	0.078859	-0.001703
0.2875	-0.000322	0.001971	0.051745	-0.005814	0.000246	-0.001994	0.120169	0.002692
0.288	-6.6e-05	-0.007077	0.04703	-0.007431	0.001196	0.002459	0.103759	0.005662
0.2885	0.000168	-0.014327	0.026606	-0.008164	0.001096	0.00672	0.044909	0.004936
0.289	-0.000612	-0.014024	0.002843	-0.005909	-4e-05	0.007031	-0.001158	0.003609
0.2895	-0.000942	-0.007172	-0.007806	-0.000863	-0.002573	0.003781	-0.005303	0.004604
0.29	-0.000403	0.000692	-0.00299	0.002843	-0.005248	0.000213	0.009418	0.006052
0.2905	-0.000216	0.004347	0.004346	0.00454	-0.005577	-0.002477	0.008647	0.005271
0.291	-0.000805	0.003682	0.005942	0.005648	-0.00358	-0.004175	-0.011134	0.00273
0.2915	-0.002353	0.003033	0.00702	0.005169	-0.002283	-0.004646	-0.030811	0.000289
0.292	-0.004645	0.004049	0.012513	0.003881	-0.004115	-0.005337	-0.039115	-0.000119
0.2925	-0.005469	0.005181	0.018111	0.003534	-0.006904	-0.007105	-0.038252	0.000343
0.293	-0.003254	0.006099	0.017188	0.00361	-0.005857	-0.008401	-0.030982	-0.002872
0.2935	-0.000148	0.006287	0.009512	0.003615	-0.000253	-0.008437	-0.018359	-0.009776
0.294	0.000991	0.004511	0.001525	0.003186	0.006868	-0.008065	-0.008025	-0.015209
0.2945	0.000213	0.001882	-0.000599	0.002126	0.013331	-0.007394	-0.011215	-0.015923
0.295	-0.000726	0.001083	0.002653	0.001	0.017826	-0.005106	-0.02362	-0.012833
0.2955	-0.000656	0.002599	0.006181	0.000355	0.019677	-0.001184	-0.021521	-0.009128
0.296	0.000134	0.004236	0.007608	-0.000437	0.019584	0.001829	0.007995	-0.008322
0.2965	0.000135	0.003971	0.008222	-0.002491	0.018004	0.002198	0.043971	-0.01181
0.297	-0.001016	0.001603	0.008973	-0.003448	0.014886	0.001159	0.055856	-0.016311
0.2975	-0.001567	-0.000838	0.009527	-0.000757	0.011165	0.001424	0.041218	-0.017225
0.298	-0.00108	-0.00122	0.007657	0.00246	0.008591	0.002948	0.021438	-0.014785
0.2985	-0.001162	-1.6e-05	0.000318	0.001894	0.00798	0.002174	0.009888	-0.013377
0.299	-0.001786	0.001449	-0.010559	-0.002286	0.008212	-0.001463	0.004171	-0.015202
0.2995	-0.001168	0.001756	-0.019087	-0.005808	0.00795	-0.004078	0.000424	-0.017702
0.3	0.000446	-0.000723	-0.023365	-0.004637	0.007086	-0.003345	-0.001652	-0.018103
0.3005	0.000343	-0.004766	-0.024807	-0.000406	0.005868	-0.000738	-0.001849	-0.0161
0.301	-0.001807	-0.007127	-0.023917	0.000947	0.004325	0.000995	0.000231	-0.013234
0.3015	-0.002759	-0.006503	-0.023291	-0.00186	0.00221	0.000136	0.004556	-0.011312
0.302	-0.001068	-0.003593	-0.028012	-0.004246	-0.000127	-0.002621	0.008162	-0.009784
0.3025	0.00156	8.9e-05	-0.036889	-0.004916	-0.000977	-0.004151	0.006885	-0.008125
0.303	0.003074	0.002247	-0.037296	-0.006453	0.000601	-0.002513	0.002161	-0.007243
0.3035	0.002179	0.001715	-0.017739	-0.008893	0.003127	0.000376	0.000819	-0.006477
0.304	-0.00046	0.000208	0.013218	-0.01006	0.004235	0.002085	0.006435	-0.005167
0.3045	-0.002726	-0.000417	0.03099	-0.008141	0.003166	0.002743	0.017202	-0.004086
0.305	-0.003591	-0.000405	0.023256	-0.003291	0.001439	0.002808	0.029981	-0.002778
0.3055	-0.003808	-0.000638	0.005054	0.001528	0.000281	0.001317	0.040217	7.4e-05
0.306	-0.004704	-0.001533	-0.001787	0.003204	-0.000449	-0.001442	0.041846	0.003207
0.3065	-0.005941	-0.002441	0.004913	0.000806	9e-06	-0.003005	0.032891	0.003195
0.307	-0.005816	-0.002567	0.011603	-0.003244	0.002021	-0.002758	0.019489	-0.000579
0.3075	-0.004283	-0.002561	0.010979	-0.004178	0.003428	-0.002693	0.009614	-0.004457
0.308	-0.002028	-0.003229	0.008083	-0.001745	0.002553	-0.0031	0.004573	-0.005471
0.3085	0.001127	-0.004223	0.00845	-0.001045	-4.8e-05	-0.002264	-0.000481	-0.004712
0.309	0.003514	-0.004819	0.010083	-0.003227	-0.002963	-0.000321	-0.011199	-0.004151
0.3095	0.002475	-0.004869	0.008261	-0.004716	-0.005324	0.000696	-0.029097	-0.0036
0.31	-0.000592	-0.004052	0.002898	-0.00435	-0.007254	0.00027	-0.050411	-0.003078
0.3105	-0.002036	-0.002632	-0.002066	-0.002848	-0.008493	-0.000169	-0.070123	-0.003028
0.311	-0.001266	-0.002679	-0.003801	-0.001265	-0.008455	0.001004	-0.084645	-0.002225
0.3115	0.000195	-0.004143	-0.002517	-0.00214	-0.007333	0.003963	-0.090613	-0.000367
0.312	0.000954	-0.004003	0.000272	-0.005332	-0.005699	0.0063	-0.083485	0.000653
0.3125	0.000799	-0.000765	0.003289	-0.0071	-0.003516	0.006693	-0.054715	-0.001003
0.313	0.001492	0.004143	0.005382	-0.005455	-0.000424	0.007132	0.009134	-0.004609
0.3135	0.003612	0.007089	0.005608	-0.001109	0.002192	0.008069	0.109222	-0.006261
0.314	0.004536	0.005081	0.00418	0.00444	0.002002	0.007089	0.204974	-0.003935
0.3145	0.00227	0.000292	0.002949	0.009118	-0.000876	0.003224	0.223969	-0.00091
0.315	-0.001317	-0.00202	0.003998	0.010465	-0.003699	-0.000915	0.138113	-0.000738
0.3155	-0.003329	-0.001034	0.007147	0.008044	-0.004302	-0.001718	0.016006	-0.001658
0.316	-0.003255	-0.000496	0.009947	0.00512	-0.003281	0.001	-0.048597	-8e-05
0.3165	-0.002021	-0.002	0.010496	0.004575	-0.002501	0.004139	-0.044672	0.003347
0.317	-0.001207	-0.003888	0.008197	0.005305	-0.00324	0.004892	-0.028424	0.006337
0.3175	-0.002005	-0.004145	0.003039	0.004802	-0.004985	0.002487	-0.022876	0.007871
0.318	-0.003387	-0.001465	-0.001975	0.00254	-0.005832	-0.001378	0.001898	0.008447
0.3185	-0.00398	0.00308	-0.001737	0.000139	-0.005411	-0.004231	0.050752	0.013084
0.319	-0.00383	0.00654	0.004501	-0.000592	-0.004531	-0.005313	0.07039	0.025866
0.3195	-0.003713	0.008027	0.012085	0.000222	-0.003984	-0.005185	0.021441	0.041235
0.32	-0.004416	0.009292	0.015777	0.001111	-0.005002	-0.004777	-0.06037	0.050018
0.3205	-0.005818	0.011405	0.013691	0.002378	-0.007082	-0.005229	-0.107093	0.050264
0.321	-0.006566	0.013845	0.007926	0.004505	-0.007657	-0.006537	-0.093342	0.046814
0.3215	-0.004521	0.016164	0.001124	0.004963	-0.005479	-0.007231	-0.045587	0.044317
0.322	0.000314	0.017356	-0.006226	0.002459	-0.002483	-0.006895	-0.001273	0.04419
0.3225	0.003847	0.015656	-0.014156	-0.002166	-0.001327	-0.006105	0.02113	0.044469
0.323	0.003239	0.010428	-0.021949	-0.011061	-0.001954	-0.004085	0.023195	0.041843
0.3235	0.000661	0.003027	-0.028411	-0.025437	-0.00296	-0.000389	0.014656	0.036844
0.324	-0.000701	-0.003009	-0.032117	-0.040373	-0.00404	0.002818	0.003589	0.032904
0.3245	-0.000284	-0.004953	-0.033552	-0.05143	-0.005234	0.003598	-0.005697	0.029661
0.325	-9e-06	-0.004997	-0.034467	-0.059233	-0.006042	0.002796	-0.010847	0.024373
0.3255	-0.001661	-0.008024	-0.0333	-0.063379	-0.005475	0.001435	-0.012921	0.018909
0.326	-0.003641	-0.015242	-0.026723	-0.060673	-0.003423	0.000261	-0.017611	0.016541
0.3265	-0.003056	-0.022001	-0.015921	-0.049434	-0.00188	0.001279	-0.028623	0.015012
0.327	-0.000646	-0.02332	-0.006936	-0.030601	-0.002609	0.00454	-0.039279	0.011125
0.3275	0.000108	-0.018764	-0.004208	-0.008991	-0.004307	0.007702	-0.038386	0.006203
0.328	-0.001885	-0.01027	-0.005559	0.009521	-0.00445	0.009593	-0.026668	0.002689
0.3285	-0.00325	-0.000601	-0.005642	0.023596	-0.003512	0.009718	-0.019168	0.001407
0.329	-0.000302	0.00591	-0.001957	0.033213	-0.00377	0.007333	-0.029663	0.001693
0.3295	0.005998	0.006867	0.005213	0.038005	-0.004888	0.002432	-0.055214	0.000693
0.33	0.011321	0.004611	0.015665	0.041498	-0.004894	-0.003624	-0.072679	-0.003355
0.3305	0.013381	0.00232	0.029481	0.048368	-0.003426	-0.008077	-0.053743	-0.007303
0.331	0.013779	0.000594	0.044434	0.058493	-0.001662	-0.009248	0.002106	-0.007677
0.3315	0.013687	-0.00089	0.05534	0.067371	-0.00056	-0.008327	0.048575	-0.005319
0.332	0.011756	-0.002056	0.058446	0.070503	-0.000191	-0.007168	0.029337	-0.003527
0.3325	0.007883	-0.00325	0.055172	0.067194	-0.00063	-0.00613	-0.055457	-0.00465
0.333	0.004274	-0.005176	0.050138	0.060492	-0.001462	-0.004138	-0.13665	-0.007529
0.3335	0.002462	-0.007634	0.047077	0.052024	-0.001149	-0.001293	-0.1447	-0.009759
0.334	0.00222	-0.008775	0.046578	0.039985	0.000963	-5.2e-05	-0.08223	-0.011347
0.3345	0.003025	-0.005911	0.045329	0.024316	0.004179	-0.000545	-0.009549	-0.012532
0.335	0.004417	0.00155	0.038089	0.007155	0.007506	0.001216	0.035189	-0.013669
0.3355	0.004845	0.00935	0.022374	-0.009944	0.009085	0.006372	0.069386	-0.016887
0.336	0.003036	0.011476	0.000601	-0.022895	0.007962	0.009495	0.114985	-0.020565
0.3365	0.000719	0.00766	-0.021782	-0.027174	0.006128	0.006823	0.153616	-0.01982
0.337	0.000726	0.00375	-0.038591	-0.023332	0.005523	0.001782	0.158325	-0.016202
0.3375	0.002365	0.003342	-0.046372	-0.014613	0.006096	-0.001907	0.135871	-0.015518
0.338	0.002166	0.003769	-0.047468	-0.004948	0.006824	-0.003451	0.102295	-0.017924
0.3385	-0.000273	0.001381	-0.046808	0.001308	0.006778	-0.001115	0.051046	-0.019352
0.339	-0.002048	-0.003189	-0.046672	0.002925	0.006792	0.004961	-0.014866	-0.01831
0.3395	-0.002775	-0.006804	-0.046719	0.00263	0.00798	0.009084	-0.054987	-0.016197
0.34	-0.003657	-0.008582	-0.046314	0.002228	0.009224	0.006675	-0.040353	-0.014883
0.3405	-0.003885	-0.010281	-0.044337	0.000329	0.008945	0.000792	-0.002514	-0.015761
0.341	-0.003615	-0.012124	-0.039266	-0.003594	0.007023	-0.002737	0.010726	-0.018363
0.3415	-0.00379	-0.011429	-0.031725	-0.008108	0.004461	-0.002344	0.007103	-0.020687
0.342	-0.002917	-0.007214	-0.025339	-0.012981	0.002695	-0.000364	0.030772	-0.021446
0.3425	9e-06	-0.001998	-0.023143	-0.018314	0.002862	0.000409	0.08557	-0.020705
0.343	0.002562	0.002282	-0.023317	-0.021318	0.004592	-0.001098	0.124928	-0.018854
0.3435	0.002481	0.005069	-0.021478	-0.01913	0.006001	-0.003038	0.116405	-0.016747
0.344	0.001318	0.005462	-0.016049	-0.013379	0.006258	-0.002136	0.07733	-0.015947
0.3445	0.001656	0.003684	-0.007943	-0.008047	0.006659	0.001353	0.042622	-0.015484
0.345	0.003226	0.002364	0.001504	-0.006197	0.00779	0.003409	0.026944	-0.013071
0.3455	0.00321	0.003605	0.010327	-0.007244	0.007869	0.002097	0.024223	-0.010559
0.346	0.000343	0.005812	0.016691	-0.00685	0.005969	-0.000424	0.024848	-0.01089
0.3465	-0.002148	0.006939	0.020026	-0.004124	0.004268	-0.000822	0.024769	-0.012551
0.347	-0.001396	0.007792	0.02078	-0.002932	0.00424	0.001394	0.022143	-0.011365
0.3475	0.000608	0.008859	0.020119	-0.004478	0.004214	0.003045	0.010516	-0.006353
0.348	0.00133	0.00856	0.018214	-0.005923	0.003041	0.001726	-0.01808	-0.002213
0.3485	0.00149	0.006119	0.013159	-0.005902	0.002034	-0.00049	-0.061584	-0.003476
0.349	0.001731	0.003322	0.005	-0.005721	0.002136	-0.000148	-0.104821	-0.007406
0.3495	0.000197	0.001956	-0.002146	-0.005649	0.002442	0.001556	-0.129708	-0.007429
0.35	-0.003598	0.001615	-0.00466	-0.006273	0.00243	0.001271	-0.128378	-0.003245
0.3505	-0.006781	0.001804	-0.003186	-0.008937	0.002256	-0.000423	-0.109036	6e-06
0.351	-0.006897	0.002738	-0.000994	-0.011247	0.001027	-0.001421	-0.089562	0.000692
0.3515	-0.00429	0.003997	-0.000309	-0.010034	-0.00088	-0.001334	-0.082336	1.6e-05
0.352	-0.001482	0.004789	-0.000513	-0.006526	-0.001501	-0.000233	-0.083734	-0.001767
0.3525	-0.000853	0.004385	8e-06	-0.004249	-0.001497	0.001413	-0.081294	-0.003444
0.353	-0.002001	0.00254	0.00152	-0.00459	-0.00258	0.002245	-0.070037	-0.003241
0.3535	-0.003045	0.00036	0.003818	-0.005536	-0.003418	0.001574	-0.055309	-0.001761
0.354	-0.003353	-0.001291	0.0066	-0.004494	-0.001697	-6.9e-05	-0.043914	-0.000561
0.3545	-0.00375	-0.003385	0.008492	-0.001148	0.002287	-0.001864	-0.040456	0.000993
0.355	-0.004566	-0.005846	0.009198	-0.000782	0.005889	-0.002293	-0.047235	0.003129
0.3555	-0.004626	-0.005955	0.010955	-0.013152	0.006913	-0.00066	-0.060443	0.003989
0.356	-0.004362	-0.002175	0.014586	-0.040761	0.005251	0.000753	-0.061833	0.003684
0.3565	-0.005952	0.002796	0.017695	-0.072356	0.002769	0.000379	-0.021893	0.003901
0.357	-0.007713	0.004637	0.019018	-0.092757	0.001989	-2.2e-05	0.060579	0.004419
0.3575	-0.005638	0.002123	0.019658	-0.096764	0.002246	0.001099	0.124722	0.004037
0.358	-0.001445	-0.002123	0.019725	-0.089682	0.000106	0.002788	0.102075	0.003266
0.3585	-0.00025	-0.004538	0.01816	-0.075664	-0.004116	0.00323	0.016557	0.003658
0.359	-0.002237	-0.00391	0.01591	-0.054183	-0.006211	0.002398	-0.024713	0.004366
0.3595	-0.00441	-0.003081	0.01585	-0.025189	-0.004799	0.002101	0.035804	0.004041
0.36	-0.005423	-0.00528	0.018272	0.008676	-0.003123	0.002839	0.135938	0.004248
0.3605	-0.005032	-0.008459	0.020604	0.041888	-0.003489	0.003214	0.179754	0.00548
0.361	-0.003989	-0.008099	0.021993	0.069061	-0.004104	0.00216	0.142636	0.005258
0.3615	-0.003245	-0.004487	0.023502	0.088594	-0.003735	-0.000432	0.068897	0.002493
0.362	-0.002142	-0.001563	0.025701	0.10131	-0.004156	-0.003541	0.007664	-0.000943
0.3625	0.000332	-0.00071	0.028113	0.108425	-0.005904	-0.005885	-0.020035	-0.002273
0.363	0.003824	-0.001011	0.028341	0.11161	-0.007616	-0.007367	-0.016701	-0.000631
0.3635	0.006096	-0.001957	0.02272	0.111963	-0.008797	-0.007621	-0.003712	0.00172
0.364	0.005417	-0.002151	0.00923	0.108189	-0.008906	-0.005658	-0.014903	0.002379
0.3645	0.003693	-0.001033	-0.010309	0.097369	-0.007547	-0.002594	-0.068883	0.002103
0.365	0.002989	-0.00071	-0.030578	0.076809	-0.005835	-0.000644	-0.138409	0.002885
0.3655	0.00195	-0.001503	-0.048058	0.046041	-0.004975	0.000388	-0.163607	0.003883
0.366	-0.000236	-0.001276	-0.06607	0.011219	-0.005548	0.001644	-0.111284	0.003186
0.3665	-0.002325	0.00046	-0.088395	-0.015341	-0.007	0.002344	-0.010502	0.002464
0.367	-0.003839	0.001933	-0.106518	-0.026051	-0.007318	0.001423	0.081543	0.003938
0.3675	-0.004142	0.00145	-0.103705	-0.025258	-0.0053	0.000114	0.132493	0.005692
0.368	-0.002416	-0.000315	-0.078737	-0.021292	-0.002511	-0.000118	0.144087	0.005863
0.3685	0.000433	-0.001253	-0.052421	-0.018109	-0.001946	-0.000439	0.130827	0.005828
0.369	0.003587	-0.000291	-0.040012	-0.017044	-0.003396	-0.002201	0.105619	0.006785
0.3695	0.006839	0.001782	-0.033363	-0.017155	-0.002918	-0.004809	0.0768	0.008794
0.37	0.008832	0.003416	-0.022855	-0.016257	0.000288	-0.006419	0.049732	0.010891
0.3705	0.008014	0.004607	-0.01992	-0.015441	0.00244	-0.005354	0.028595	0.01121
0.371	0.004677	0.005774	-0.040889	-0.015223	0.002045	-0.002983	0.011866	0.010105
0.3715	0.001136	0.005849	-0.076974	-0.013512	0.00135	-0.001895	-0.011577	0.008976
0.372	5.5e-05	0.004403	-0.095774	-0.011712	0.000966	-0.001062	-0.049693	0.007342
0.3725	0.00228	0.003267	-0.075575	-0.013264	-0.000421	0.001364	-0.086531	0.004708
0.373	0.005454	0.004522	-0.02997	-0.016644	-0.001968	0.003549	-0.088076	0.001853
0.3735	0.006536	0.007925	0.015619	-0.017254	-0.001843	0.003399	-0.041398	0.000124
0.374	0.005833	0.010564	0.069311	-0.014737	-0.000631	0.002067	0.022923	0.00012
0.3745	0.005406	0.009521	0.159444	-0.012234	-0.000456	0.00168	0.061365	0.000577
0.375	0.006155	0.005648	0.261269	-0.011807	-0.001361	0.002736	0.058851	-0.000292
0.3755	0.007418	0.001352	0.287828	-0.012779	-0.000886	0.003614	0.02813	-0.001804
0.376	0.00727	-0.003143	0.196717	-0.012451	0.001729	0.002985	-0.015189	-0.001747
0.3765	0.00496	-0.006763	0.062427	-0.011021	0.004484	0.002571	-0.058576	-0.000868
0.377	0.001733	-0.007639	-0.010938	-0.010812	0.00511	0.003649	-0.086107	-0.001173
0.3775	-0.000837	-0.00685	-0.009799	-0.011033	0.002634	0.003429	-0.088737	-0.001875
0.378	-0.001574	-0.00644	0.007857	-0.010925	-0.000739	6.3e-05	-0.078304	-0.001555
0.3785	-0.000426	-0.0066	0.009205	-0.011482	-0.001452	-0.003309	-0.075477	-0.000615
0.379	0.001302	-0.006334	0.008658	-0.011309	0.000338	-0.003446	-0.084441	-0.000494
0.3795	0.001911	-0.005217	0.019293	-0.0086	0.001286	-0.000713	-0.091248	-0.001632
0.38	0.000879	-0.003562	0.029714	-0.004707	0.000237	0.003034	-0.082878	-0.002875
0.3805	-0.000863	-0.00139	0.026963	-0.001615	-0.000226	0.005437	-0.052502	-0.002846
0.381	-0.002141	0.00116	0.014523	-0.001725	0.001635	0.005248	0.005808	-0.000905
0.3815	-0.002375	0.003002	0.001489	-0.008197	0.004287	0.004228	0.081494	0.001473
0.382	-0.002594	0.002103	-0.009107	-0.018582	0.005473	0.003203	0.131466	0.002141
0.3825	-0.00408	-0.001396	-0.016313	-0.024927	0.004643	0.001263	0.114134	0.001612
0.383	-0.005609	-0.003372	-0.018831	-0.02279	0.003517	-0.000506	0.043714	0.001858
0.3835	-0.005155	-0.001647	-0.018457	-0.014272	0.003338	-0.001208	-0.019269	0.0032
0.384	-0.003243	0.00145	-0.017918	-0.005354	0.002952	-0.001492	-0.035503	0.003906
0.3845	-0.002394	0.004259	-0.0172	-0.001635	0.001918	-0.00146	-0.019009	0.00306
0.385	-0.004122	0.006282	-0.015554	-0.004164	0.001554	-0.001351	-0.000693	0.001621
0.3855	-0.007776	0.005679	-0.014013	-0.008847	0.001978	-0.001815	0.010047	0.000672
0.386	-0.011426	0.002692	-0.013499	-0.011415	0.002129	-0.003003	0.017873	0.000331
0.3865	-0.013325	0.001001	-0.012184	-0.01385	0.00156	-0.003888	0.021592	-0.000101
0.387	-0.012661	0.001754	-0.007725	-0.020865	0.000387	-0.00367	0.016952	0.000485
0.3875	-0.008113	0.002272	-0.000692	-0.032348	-0.000574	-0.003604	0.00656	0.002769
0.388	0.000689	0.000633	0.005385	-0.04323	-0.001079	-0.004036	-0.002278	0.003341
0.3885	0.008808	-0.002983	0.006525	-0.047289	-0.002151	-0.003311	-0.005757	0.001159
0.389	0.009558	-0.006624	0.002151	-0.042165	-0.003184	-0.001566	-0.006145	0.000247
0.3895	0.003168	-0.007272	-0.004379	-0.031349	-0.002816	-0.000514	-0.006237	0.002144
0.39	-0.003332	-0.004187	-0.009776	-0.018242	-0.002091	-0.000776	-0.005384	0.004165
0.3905	-0.005005	-0.000633	-0.013756	-0.001174	-0.002508	-0.002631	-0.002645	0.004492
0.391	-0.003211	0.000494	-0.017482	0.021618	-0.003215	-0.005753	0.000588	0.003307
0.3915	-0.000863	0.000143	-0.020392	0.046655	-0.002562	-0.007786	0.001915	0.001138
0.392	0.00082	-0.000415	-0.021728	0.067364	-0.001289	-0.006649	0.00014	-0.001453
0.3925	0.001472	-0.001855	-0.023729	0.079368	-0.001283	-0.002834	-0.00355	-0.003772
0.393	0.001245	-0.003882	-0.028799	0.084339	-0.00195	0.001052	-0.006095	-0.004086
0.3935	0.000551	-0.004448	-0.035009	0.085865	-0.001333	0.001987	-0.004732	-0.001485
0.394	5.5e-05	-0.002556	-0.037013	0.083325	0.000361	0.000136	0.000309	0.000721
0.3945	0.000202	0.000592	-0.032196	0.074944	0.001047	-0.001068	0.005681	-5.1e-05
0.395	0.00018	0.003111	-0.025212	0.06158	0.000102	0.000229	0.007639	-0.000541
0.3955	-0.001406	0.003537	-0.023641	0.04598	-0.001133	0.002261	0.004736	0.002022
0.396	-0.003968	0.001293	-0.029747	0.030946	-0.002416	0.00235	-0.000418	0.004881
0.3965	-0.004039	-0.002118	-0.037447	0.01683	-0.004766	0.001152	-0.002881	0.004729
0.397	-8e-05	-0.003077	-0.038392	0.003717	-0.006982	0.001583	-0.001968	0.002062
0.3975	0.003737	0.00058	-0.031436	-0.006027	-0.006414	0.003206	-0.002976	-0.00045
0.398	0.00259	0.006744	-0.02244	-0.011804	-0.003928	0.003399	-0.008757	-0.000854
0.3985	-0.00216	0.011227	-0.017585	-0.016039	-0.002799	0.002664	-0.01412	-1.5e-05
0.399	-0.004447	0.011223	-0.019985	-0.020046	-0.003538	0.003077	-0.011442	-0.000286
0.3995	-0.001531	0.007707	-0.02662	-0.022087	-0.004225	0.004122	-0.000207	-0.00107
0.4	0.002786	0.005365	-0.029147	-0.020349	-0.003317	0.004118	0.010674	-0.000446
0.4005	0.004069	0.007073	-0.022766	-0.016291	-0.001182	0.002791	0.011057	0.001165
0.401	0.002782	0.009401	-0.010598	-0.011973	0.000119	0.00096	-0.000406	0.002884
0.4015	0.002038	0.007292	0.001266	-0.007541	0.000186	0.00018	-0.012342	0.003437
0.402	0.002299	0.001064	0.008634	-0.004299	0.000743	0.001387	-0.009143	0.001359
0.4025	0.001517	-0.00541	0.010626	-0.004577	0.00193	0.002538	0.011522	-0.001432
0.403	-0.000718	-0.01117	0.009265	-0.007178	0.001906	0.001051	0.03445	-0.001858
0.4035	-0.002195	-0.016665	0.007037	-0.009508	0.000397	-0.001427	0.041828	-0.000834
0.404	-0.001151	-0.019655	0.004918	-0.012428	-0.000583	-0.001655	0.027905	-0.001199
0.4045	0.000266	-0.019134	0.003269	-0.016737	-0.000408	-0.000302	0.000958	-0.002867
0.405	-0.001109	-0.016972	0.002145	-0.021323	0.000178	-2.5e-05	-0.025155	-0.004227
0.4055	-0.002969	-0.014507	0.001241	-0.025828	0.00105	-0.000771	-0.040998	-0.004324
0.406	-0.00063	-0.011863	0.001905	-0.029165	0.001422	-0.000202	-0.045052	-0.002135
0.4065	0.005131	-0.00681	0.006275	-0.030501	0.00158	0.0025	-0.039676	0.000584
0.407	0.009866	0.003212	0.013131	-0.031922	0.003621	0.004703	-0.026526	-3.4e-05
0.4075	0.011207	0.014686	0.018757	-0.035023	0.006952	0.003334	-0.008402	-0.002961
0.408	0.008866	0.01948	0.022065	-0.037274	0.007951	-0.000275	0.007744	-0.003929
0.4085	0.004547	0.014621	0.025136	-0.035177	0.005451	-0.001412	0.014921	-0.003357
0.409	0.002065	0.005805	0.030209	-0.029392	0.002488	0.000919	0.012885	-0.003853
0.4095	0.002569	-0.000387	0.038109	-0.022869	0.001261	0.002301	0.007526	-0.003447
0.41	0.003263	-0.002125	0.047468	-0.016633	0.001719	0.000414	0.00324	-0.000765
0.4105	0.002186	-0.000668	0.056452	-0.009654	0.004145	-0.002493	0.000437	0.000245
0.411	0.000347	0.001403	0.065215	-0.001052	0.007798	-0.004292	-0.000176	-0.002116
0.4115	-7.5e-05	0.002196	0.073006	0.006794	0.010157	-0.003765	0.002259	-0.004839
0.412	0.001519	0.001434	0.076769	0.010788	0.009194	-0.000806	0.005585	-0.005864
0.4125	0.003335	-0.000974	0.07646	0.012842	0.005882	0.002383	0.006801	-0.005222
0.413	0.003537	-0.00371	0.07433	0.017369	0.003716	0.003441	0.006276	-0.004393
0.4135	0.002098	-0.003568	0.067548	0.02505	0.003699	0.001819	0.006893	-0.005586
0.414	-0.00041	0.000589	0.050926	0.032685	0.002962	-0.001281	0.007933	-0.008294
0.4145	-0.003307	0.006463	0.026594	0.036482	-0.000143	-0.003663	0.003137	-0.008648
0.415	-0.004352	0.011043	0.00398	0.034525	-0.003478	-0.003007	-0.0109	-0.005018
0.4155	-0.00255	0.01307	-0.010167	0.029911	-0.004169	0.000623	-0.027868	-0.000679
0.416	-0.000825	0.013829	-0.019172	0.027309	-0.002092	0.003154	-0.038374	0.001344
0.4165	-0.001068	0.014236	-0.031262	0.024994	0.000107	0.002012	-0.041497	0.001151
0.417	-0.001894	0.012599	-0.049225	0.019269	0.001078	-0.000589	-0.045106	-0.000304
0.4175	-0.002998	0.008406	-0.068025	0.011366	0.002904	-0.002898	-0.053048	-0.002313
0.418	-0.004934	0.004713	-0.0788	0.003879	0.00604	-0.004773	-0.055525	-0.003752
0.4185	-0.005944	0.003963	-0.077243	-0.001617	0.007158	-0.005095	-0.036546	-0.003255
0.419	-0.005034	0.003993	-0.069693	-0.004006	0.004624	-0.003637	0.010682	-0.000504
0.4195	-0.004319	0.001023	-0.064472	-0.004192	0.000517	-0.001472	0.076931	0.002445
0.42	-0.004299	-0.004753	-0.060955	-0.004121	-0.00252	0.001281	0.14075	0.002119
0.4205	-0.003325	-0.010029	-0.054577	-0.004142	-0.003451	0.003947	0.176904	-0.0011
0.421	-0.002041	-0.01249	-0.04579	-0.003766	-0.002916	0.004777	0.168308	-0.002179
0.4215	-0.002167	-0.011853	-0.037649	-0.003062	-0.001736	0.004131	0.120258	-8.8e-05
0.422	-0.00299	-0.009324	-0.030904	-0.002632	-6.7e-05	0.003285	0.063139	0.000572
0.4225	-0.002194	-0.00654	-0.025046	-0.003207	0.000884	0.002069	0.029911	-0.00092
0.423	0.000295	-0.004731	-0.019716	-0.004256	-0.001003	0.00056	0.025699	-0.000179
0.4235	0.001581	-0.003925	-0.014957	-0.004765	-0.005183	-0.000492	0.026007	0.003281
0.424	0.000947	-0.003518	-0.011795	-0.00587	-0.007604	-0.000537	0.006893	0.004379
0.4245	0.000625	-0.004756	-0.010952	-0.008069	-0.00546	0.000174	-0.029789	0.001728
0.425	0.000604	-0.007533	-0.011535	-0.00876	-0.001246	0.000456	-0.062701	1.9e-05
0.4255	-0.000193	-0.007691	-0.01126	-0.00729	0.000806	0.000113	-0.073851	0.000364
0.426	-0.00101	-0.004066	-0.008383	-0.00606	-0.000271	0.000316	-0.059027	-8e-05
0.4265	-0.001215	-0.000531	-0.004513	-0.005655	-0.00351	0.001052	-0.023725	-0.000332
0.427	-0.000708	0.000827	-0.001545	-0.005641	-0.007925	0.00137	0.019009	0.001595
0.4275	0.000283	0.001258	0.002086	-0.007363	-0.011568	0.002266	0.048712	0.003931
0.428	0.000653	0.001364	0.007954	-0.010072	-0.011984	0.004123	0.048205	0.004594
0.4285	-0.000307	-9e-05	0.015656	-0.009559	-0.008737	0.004103	0.019073	0.003984
0.429	-0.000945	-0.002773	0.025136	-0.005987	-0.00456	0.002108	-0.017318	0.00272
0.4295	0.000958	-0.003354	0.036082	-0.003889	-0.002776	0.001224	-0.036576	0.001709
0.43	0.004176	0.000638	0.044993	-0.003818	-0.003147	0.001298	-0.031849	0.002817
0.4305	0.005712	0.008243	0.047495	-0.003211	-0.001487	0.000993	-0.022724	0.004898
0.431	0.004689	0.01584	0.044017	-0.000494	0.004335	0.000841	-0.038711	0.005048
0.4315	0.003067	0.018369	0.038929	0.003465	0.009692	0.000835	-0.081929	0.003666
0.432	0.002802	0.013474	0.034641	0.00564	0.008688	0.000336	-0.114704	0.002601
0.4325	0.002523	0.006205	0.029766	0.004752	0.001842	-0.000176	-0.100675	0.002146
0.433	0.000729	0.003275	0.022566	0.002603	-0.005356	0.000455	-0.048654	0.002905
0.4335	-0.001161	0.003504	0.01371	0.002024	-0.00809	0.00192	-0.002417	0.006213
0.434	-0.001794	0.001662	0.005393	0.003801	-0.005557	0.002063	0.005918	0.009837
0.4345	-0.001419	-0.003855	-0.000676	0.005743	-0.002	-0.000877	-0.017408	0.009742
0.435	-0.000238	-0.011423	-0.004196	0.005406	-0.00105	-0.005637	-0.045856	0.006415
0.4355	0.00159	-0.018703	-0.005782	0.002182	-0.00107	-0.008791	-0.06447	0.00339
0.436	0.002446	-0.025047	-0.006245	-0.000537	-0.00103	-0.008618	-0.076066	0.003218
0.4365	0.001399	-0.030981	-0.007243	0.001279	-0.001852	-0.005971	-0.085659	0.004709
0.437	0.001214	-0.035724	-0.009839	0.004512	-0.001501	-0.002664	-0.087437	0.003436
0.4375	0.004274	-0.037631	-0.011163	0.004179	0.001716	5e-06	-0.064179	-0.001127
0.438	0.008088	-0.035759	-0.007261	0.002805	0.005107	0.001212	-0.003059	-0.004357
0.4385	0.009937	-0.030705	0.001454	0.002929	0.00562	0.000331	0.080219	-0.004075
0.439	0.010184	-0.022931	0.010825	0.001539	0.003938	-0.001194	0.141369	-0.002451
0.4395	0.008367	-0.012251	0.016798	-0.000473	0.002732	-0.00172	0.14571	-0.001242
0.44	0.004253	-0.00039	0.018546	0.000308	0.00303	-0.002237	0.102857	-0.000817
0.4405	0.001264	0.011383	0.018086	0.001032	0.003542	-0.003464	0.051817	-0.001389
0.441	0.001715	0.025485	0.017515	-0.00122	0.002474	-0.004137	0.01896	-0.002157
0.4415	0.003132	0.043116	0.018811	-0.004117	-2.4e-05	-0.003246	0.004936	-0.003011
0.442	0.002971	0.058303	0.022489	-0.005105	-0.001303	-0.002174	0.002095	-0.004903
0.4425	0.001726	0.061365	0.025849	-0.003304	6.8e-05	-0.002962	0.005548	-0.006186
0.443	0.000649	0.04876	0.025797	0.000428	0.002062	-0.003942	0.010805	-0.00495
0.4435	-0.00011	0.026467	0.020938	0.002665	0.003169	-0.002227	0.013057	-0.003622
0.444	-0.00063	0.00442	0.011754	0.001612	0.003832	0.000251	0.010658	-0.004477
0.4445	-6.3e-05	-0.010405	0.001038	0.000811	0.003579	-0.000347	0.006724	-0.004283
0.445	0.001216	-0.015696	-0.008061	0.003164	0.002396	-0.002923	0.005378	-0.000208
0.4455	0.000721	-0.01073	-0.014358	0.005703	0.001287	-0.003619	0.006829	0.003524
0.446	-0.002244	0.004215	-0.018459	0.005733	-5.7e-05	-0.002538	0.00793	0.001586
0.4465	-0.005601	0.0263	-0.022339	0.005325	-0.001711	-0.00187	0.006205	-0.004241
0.447	-0.00733	0.047978	-0.0277	0.006133	-0.003164	-0.001215	0.00264	-0.007315
0.4475	-0.006645	0.057622	-0.032807	0.006069	-0.004649	-6.5e-05	0.000241	-0.004765
0.448	-0.004573	0.050061	-0.034229	0.004188	-0.005335	0.000712	-0.000171	-0.000817
0.4485	-0.003318	0.032286	-0.031475	0.003224	-0.003844	0.001158	9.5e-05	0.000542
0.449	-0.003338	0.012539	-0.026461	0.00374	-0.000679	0.001519	-8.2e-05	0.000892
0.4495	-0.003156	-0.009188	-0.021301	0.002407	0.002942	0.001534	-0.002497	0.002216
0.45	-0.002106	-0.036952	-0.017861	-0.001706	0.006053	0.001545	-0.008798	0.003668
0.4505	-0.000895	-0.069053	-0.015508	-0.005216	0.007352	0.002005	-0.017026	0.003982
0.451	-1.9e-05	-0.09502	-0.011261	-0.005896	0.00641	0.002633	-0.022471	0.002675
0.4515	0.000941	-0.106318	-0.005099	-0.005302	0.004083	0.002758	-0.022689	0.000432
0.452	0.001591	-0.106874	-0.00044	-0.004584	0.001029	0.002177	-0.020306	-0.001285
0.4525	0.0006	-0.10331	0.001345	-0.003534	-0.001929	0.001833	-0.020407	-0.002161
0.453	-0.00097	-0.090352	0.002255	-0.002815	-0.003465	0.002621	-0.02538	-0.002571
0.4535	-0.000706	-0.058593	0.004861	-0.001537	-0.003532	0.003331	-0.029839	-0.001681
0.454	0.000709	-0.011047	0.009475	0.001312	-0.00263	0.002954	-0.017896	-0.000387
0.4545	0.000834	0.036097	0.012829	0.003418	-0.0012	0.002959	0.02452	-0.001724
0.455	3.4e-05	0.065777	0.012088	0.003557	-0.000753	0.003337	0.082089	-0.004223
0.4555	0.000367	0.074242	0.009015	0.003344	-0.000946	0.002567	0.109439	-0.003447
0.456	0.001092	0.071636	0.006662	0.003254	0.000415	0.001994	0.080252	-0.000613
0.4565	0.00016	0.065546	0.005335	0.002638	0.00197	0.002515	0.022822	-0.000689
0.457	-0.001912	0.055158	0.00384	0.002421	0.000437	0.00158	-0.015786	-0.002905
0.4575	-0.002911	0.044272	0.001475	0.002821	-0.003107	-0.001232	-0.024797	-0.0023
0.458	-0.001469	0.04262	-0.001228	0.001783	-0.004736	-0.002896	-0.027486	0.000231
0.4585	0.000722	0.047615	-0.002738	-0.000534	-0.003395	-0.00247	-0.039097	-0.000102
0.459	0.000421	0.04037	-0.002297	-0.003292	-0.000801	-0.00089	-0.050823	-0.003751
0.4595	-0.002316	0.010596	-0.000273	-0.006919	0.00137	0.001268	-0.050647	-0.006861
0.46	-0.004325	-0.02373	0.003427	-0.009407	0.001643	0.00209	-0.040042	-0.005911
0.4605	-0.003515	-0.034716	0.008239	-0.009192	-0.000691	0.000557	-0.028025	-0.001631
0.461	-0.001471	-0.020573	0.011499	-0.007274	-0.003863	-0.001291	-0.019804	0.002827
0.4615	-0.001847	-0.006774	0.011763	-0.0047	-0.004251	-0.001746	-0.014601	0.005153
0.462	-0.005808	-0.010145	0.010775	-0.002618	-0.000466	-0.000883	-0.009719	0.004345
0.4625	-0.010761	-0.020722	0.010133	-0.00213	0.004362	0.000451	-0.000463	0.001903
0.463	-0.01346	-0.022553	0.008911	-0.003249	0.006502	0.001066	0.020039	0.000259
0.4635	-0.013009	-0.016318	0.005894	-0.004333	0.00557	0.001187	0.05051	0.000217
0.464	-0.010521	-0.013193	0.002664	-0.004313	0.003526	0.002271	0.072881	0.000452
0.4645	-0.007502	-0.014804	0.001859	-0.004739	0.002145	0.003211	0.065896	-0.000311
0.465	-0.005673	-0.009847	0.003663	-0.007963	0.001995	0.001716	0.031722	-0.000651
0.4655	-0.005871	0.008175	0.006307	-0.015503	0.003283	-0.000828	-0.002427	-0.000549
0.466	-0.006779	0.027409	0.007286	-0.025662	0.005661	-0.002142	-0.015833	-0.002221
0.4665	-0.006895	0.030714	0.004626	-0.033917	0.00641	-0.002741	-0.014325	-0.004381
0.467	-0.0067	0.019266	0.000933	-0.039362	0.00302	-0.002977	-0.012462	-0.00458
0.4675	-0.006832	0.010384	0.00195	-0.045989	-0.00235	-0.001687	-0.011757	-0.003805
0.468	-0.006361	0.011943	0.007781	-0.055021	-0.005577	0.001057	-0.00676	-0.002661
0.4685	-0.004862	0.016718	0.011791	-0.061374	-0.005497	0.002544	0.000134	-5.1e-05
0.469	-0.003157	0.023624	0.009335	-0.059366	-0.002934	0.00061	0.001318	0.002123
0.4695	-0.001644	0.039746	0.00297	-0.04638	0.000847	-0.002621	-0.003349	0.001537
0.47	-0.000307	0.058078	-0.001718	-0.023391	0.003482	-0.003663	-0.005634	-9.1e-05
0.4705	0.00087	0.059808	-0.003146	0.004038	0.003556	-0.00198	-0.001757	-0.001317
0.471	0.001932	0.042262	-0.003723	0.029371	0.002489	0.000844	0.002655	-0.002374
0.4715	0.002889	0.022802	-0.004744	0.047695	0.002032	0.002936	0.001892	-0.002595
0.472	0.003638	0.012613	-0.005702	0.05725	0.002421	0.003096	-0.003226	-0.002694
0.4725	0.003564	0.004985	-0.006591	0.063564	0.003606	0.00172	-0.008337	-0.004004
0.473	0.002675	-0.006534	-0.007625	0.073675	0.004841	0.000589	-0.010755	-0.004157
0.4735	0.002297	-0.016455	-0.009227	0.086028	0.004169	0.000839	-0.01043	0.000914
0.474	0.003744	-0.01988	-0.0121	0.092928	0.001683	0.001593	-0.007629	0.011434
0.4745	0.00692	-0.020968	-0.014883	0.089358	0.000325	0.002232	-0.003264	0.022226
0.475	0.009639	-0.025009	-0.014728	0.076968	0.000713	0.003391	-0.000497	0.026826
0.4755	0.009937	-0.032221	-0.011275	0.060207	-0.000749	0.004256	-0.001378	0.024683
0.476	0.008249	-0.038979	-0.007998	0.040409	-0.005862	0.003572	-0.003819	0.022293
0.4765	0.006311	-0.041145	-0.009589	0.018427	-0.011368	0.002538	-0.004913	0.024128
0.477	0.00529	-0.038004	-0.017146	0.000376	-0.01451	0.00227	-0.004447	0.028016
0.4775	0.004608	-0.029678	-0.025577	-0.007564	-0.016583	0.002018	-0.003656	0.030313
0.478	0.003889	-0.011839	-0.02812	-0.008285	-0.018103	0.001515	-0.002527	0.028621
0.4785	0.003913	0.013658	-0.023493	-0.009216	-0.016819	0.001154	-0.000639	0.022839
0.479	0.004444	0.026157	-0.016925	-0.011706	-0.012741	0.001308	0.000825	0.01624
0.4795	0.004773	0.004767	-0.014685	-0.012451	-0.008137	0.001886	0.000834	0.010946
0.48	0.005134	-0.039778	-0.017381	-0.010919	-0.003652	0.001513	0.000272	0.004466
0.4805	0.006083	-0.072726	-0.019942	-0.008925	0.000521	-0.000484	0.000551	-0.00551
0.481	0.007305	-0.078292	-0.018616	-0.0074	0.004154	-0.002616	0.001783	-0.016437
0.4815	0.007966	-0.071508	-0.013583	-0.008195	0.00863	-0.0028	0.002586	-0.024395
0.482	0.007829	-0.065365	-0.00701	-0.013615	0.015261	-0.001076	0.001767	-0.028058
0.4825	0.006944	-0.056096	-0.00187	-0.022483	0.023317	-0.000548	-0.000122	-0.028887
0.483	0.005275	-0.044884	0.00092	-0.030754	0.029422	-0.00285	-0.001291	-0.029743
0.4835	0.00272	-0.046219	0.003272	-0.033896	0.02855	-0.00504	-0.000782	-0.030421
0.484	0.000421	-0.063669	0.006494	-0.029941	0.019932	-0.004551	-0.000146	-0.028891
0.4845	0.000245	-0.074867	0.009874	-0.022096	0.010509	-0.002904	-0.001225	-0.02705
0.485	0.000914	-0.054159	0.01224	-0.014809	0.00838	-0.001988	-0.002509	-0.026515
0.4855	-0.000753	-0.000762	0.013682	-0.009355	0.012879	-0.000992	-0.000942	-0.024654
0.486	-0.004441	0.063734	0.015429	-0.004894	0.012858	0.00134	0.003373	-0.02114
0.4865	-0.00633	0.116751	0.01716	-0.001341	-0.001419	0.004258	0.006892	-0.019619
0.487	-0.00443	0.144652	0.017196	-5.1e-05	-0.025987	0.005368	0.007145	-0.020621
0.4875	-0.001	0.141128	0.016169	-0.002626	-0.045041	0.00314	0.005676	-0.020868
0.488	0.000876	0.11228	0.016012	-0.009153	-0.044892	-0.001192	0.0047	-0.018214
0.4885	0.000658	0.078734	0.016225	-0.01571	-0.028708	-0.004974	0.003257	-0.012695
0.489	-0.000233	0.060351	0.014628	-0.016729	-0.01291	-0.006099	-0.000107	-0.006388
0.4895	-0.000944	0.058857	0.011248	-0.0107	-0.006765	-0.004265	-0.003763	-0.001609
0.49	-0.001748	0.05927	0.008754	-0.00074	-0.00543	-0.001829	-0.005941	0.000818
0.4905	-0.002652	0.049722	0.008229	0.007623	-0.003231	-0.001854	-0.008402	0.00011
0.491	-0.003642	0.034397	0.00819	0.009431	-0.001469	-0.003894	-0.013029	-0.002164
0.4915	-0.004933	0.023102	0.00788	0.004606	-0.000916	-0.003965	-0.017395	-0.00194
0.492	-0.005602	0.017069	0.007833	-0.002055	0.002336	-0.00082	-0.018161	0.001562
0.4925	-0.003848	0.011629	0.007487	-0.006611	0.009468	0.001408	-0.0165	0.005717
0.493	-0.000461	0.005783	0.0058	-0.008309	0.015264	-0.000608	-0.015927	0.009263
0.4935	0.000661	0.00235	0.004522	-0.007791	0.015329	-0.004279	-0.015947	0.013342
0.494	-0.0011	0.00149	0.005954	-0.007316	0.012576	-0.00531	-0.011162	0.017758
0.4945	-0.002118	-0.000967	0.007693	-0.007895	0.012421	-0.004006	0.001796	0.019186
0.495	-0.001036	-0.007394	0.006075	-0.007437	0.015292	-0.002799	0.019474	0.015139
0.4955	0.000719	-0.016369	0.003243	-0.005042	0.018014	-0.001844	0.036259	0.00961
0.496	0.00221	-0.028368	0.003413	-0.001861	0.018074	-0.001018	0.047616	0.011523
0.4965	0.003572	-0.044016	0.00553	9.8e-05	0.015481	-0.00112	0.047407	0.023135
0.497	0.005558	-0.05803	0.006392	-0.000645	0.012425	-0.002177	0.032236	0.035745
0.4975	0.008419	-0.064108	0.006398	-0.002226	0.010832	-0.002926	0.009884	0.041301
0.498	0.011347	-0.063452	0.007106	-0.001482	0.010788	-0.001921	-0.005703	0.041323
0.4985	0.013618	-0.061289	0.007295	0.001207	0.010527	0.000111	-0.008404	0.041516
0.499	0.014598	-0.057287	0.005363	0.002227	0.008767	0.001246	-0.006291	0.043235
0.4995	0.012774	-0.047865	0.002032	0.001198	0.006127	0.001531	-0.017043	0.044242
0.5	0.009167	-0.034117	-0.001837	0.001283	0.002081	0.001841	-0.050952	0.043564
0.5005	0.0082	-0.020957	-0.006194	0.002678	-0.004959	0.002503	-0.091242	0.044174
0.501	0.009702	-0.014181	-0.009901	0.004484	-0.013524	0.003812	-0.098899	0.051765
0.5015	0.008679	-0.019065	-0.011287	0.006543	-0.020895	0.005378	-0.047423	0.062146
0.502	0.004298	-0.036506	-0.010567	0.006233	-0.028482	0.006951	0.04516	0.056217
0.5025	-0.000425	-0.062038	-0.009995	0.002602	-0.038582	0.008601	0.123928	0.02387
0.503	-0.003886	-0.088903	-0.01107	-0.000273	-0.046927	0.008871	0.140392	-0.019543
0.5035	-0.006141	-0.108217	-0.012985	8.6e-05	-0.046023	0.006907	0.091821	-0.053348
0.504	-0.008028	-0.108707	-0.014014	0.000889	-0.035161	0.004502	0.02242	-0.07203
0.5045	-0.010023	-0.081356	-0.012068	0.000298	-0.022389	0.003303	-0.018578	-0.078963
0.505	-0.010429	-0.02836	-0.005868	-0.000383	-0.015406	0.003061	-0.021848	-0.076479
0.5055	-0.006973	0.029069	0.001854	-0.001272	-0.012804	0.002285	-0.014054	-0.067823
0.506	-0.001631	0.058629	0.005763	-0.002646	-0.010656	-0.000173	-0.015644	-0.058611
0.5065	-7e-05	0.042565	0.003386	-0.002432	-0.012375	-0.003528	-0.02033	-0.052307
0.507	-0.003424	-0.003456	-0.002577	0.000207	-0.017929	-0.005856	-0.015009	-0.047484
0.5075	-0.006278	-0.039869	-0.005705	0.00276	-0.012171	-0.005472	-0.001428	-0.041501
0.507999999999999	-0.005737	-0.0329	-0.001592	0.002391	0.01547	-0.002841	0.007512	-0.034642
0.508499999999999	-0.004723	0.02315	0.006668	-0.000626	0.047085	-0.001613	0.002765	-0.027828
0.508999999999999	-0.005201	0.104923	0.012383	-0.003091	0.054372	-0.003466	-0.015415	-0.020166
0.509499999999999	-0.006012	0.172432	0.012896	-0.002375	0.035736	-0.004853	-0.041289	-0.01113
0.509999999999999	-0.005694	0.18821	0.010056	9.1e-05	0.015519	-0.003229	-0.066134	-0.00332
0.510499999999999	-0.003577	0.141452	0.005809	0.000469	0.009918	-0.000596	-0.080123	-0.001471
0.510999999999999	-0.000812	0.060575	0.000976	-0.001786	0.012429	0.000949	-0.079443	-0.004493
0.511499999999999	0.00051	-0.007001	-0.003206	-0.003826	0.012044	0.001703	-0.072106	-0.003769
0.511999999999999	0.000203	-0.034462	-0.005462	-0.003241	0.008113	0.002526	-0.072347	0.003809
0.512499999999999	3e-06	-0.031792	-0.005513	0.00025	0.005706	0.002743	-0.088147	0.010388
0.512999999999999	0.00061	-0.024856	-0.003837	0.004624	0.006644	0.000677	-0.112662	0.009717
0.513499999999999	0.000451	-0.02551	-0.001392	0.007488	0.00773	-0.002887	-0.121266	0.005716
0.513999999999999	-0.001176	-0.023729	0.000864	0.008121	0.00616	-0.004124	-0.076539	0.004358
0.514499999999999	-0.00241	-0.006077	0.002794	0.007734	0.003517	-0.001254	0.041023	0.005207
0.514999999999999	-0.002041	0.025468	0.004298	0.007943	0.003608	0.00238	0.186037	0.005069
0.515499999999999	-0.001444	0.054995	0.004536	0.008195	0.007215	0.003368	0.257803	0.003998
0.515999999999999	-0.002042	0.066717	0.003161	0.006065	0.009387	0.002598	0.194726	0.003658
0.516499999999999	-0.002773	0.056092	0.000579	0.001719	0.003655	0.001918	0.049588	0.003076
0.516999999999998	-0.002522	0.030746	-0.00247	-0.000727	-0.010578	0.00122	-0.05753	0.001213
0.517499999999998	-0.002705	0.002851	-0.004834	-0.00045	-0.023634	0.000437	-0.056333	-0.000193
0.517999999999998	-0.003692	-0.019959	-0.005795	-0.000931	-0.023147	0.000684	0.020903	-0.000182
0.518499999999998	-0.004145	-0.036596	-0.005435	-0.001326	-0.010202	0.001531	0.089492	4.8e-05
0.518999999999998	-0.00473	-0.045492	-0.004112	0.000588	0.001784	0.001099	0.095828	-0.000628
0.519499999999998	-0.00594	-0.040501	-0.002604	0.002438	0.004303	-0.000399	0.055834	-0.000886
0.519999999999998	-0.006326	-0.017783	-0.002174	0.003076	9.2e-05	-0.001239	0.019699	0.002178
0.520499999999998	-0.005198	0.015956	-0.002588	0.004101	-0.003941	-0.000796	0.011632	0.007355
0.520999999999998	-0.002329	0.044856	-0.001571	0.004635	-0.005116	-4e-06	0.020566	0.00965
0.521499999999998	0.0016	0.05536	0.000841	0.002515	-0.005727	-0.000442	0.037516	0.007441
0.521999999999998	0.002931	0.047126	0.001575	-0.000639	-0.007174	-0.002876	0.067792	0.004215
0.522499999999998	-0.000115	0.031448	0.000109	-0.002056	-0.00844	-0.005974	0.103442	0.002914
0.522999999999998	-0.003694	0.019327	-0.000546	-0.002498	-0.008606	-0.007394	0.117861	0.002791
0.523499999999998	-0.00423	0.013077	0.000986	-0.002885	-0.007641	-0.006474	0.101791	0.002986
0.523999999999998	-0.001862	0.010478	0.002648	-0.003598	-0.005774	-0.003778	0.080432	0.003113
0.524499999999998	0.001451	0.011619	0.001975	-0.005025	-0.003133	-0.000554	0.081973	0.00269
0.524999999999998	0.003033	0.016112	-0.001366	-0.004267	-0.000573	0.000934	0.106903	0.003827
0.525499999999998	0.002062	0.019082	-0.004638	-0.000957	-0.000355	0.00061	0.132174	0.007755
0.525999999999997	-0.000168	0.016443	-0.004607	0.000243	-0.004243	0.001216	0.122057	0.011956
0.526499999999997	-0.002867	0.010733	-0.002169	-0.000526	-0.010132	0.003334	0.037877	0.015135
0.526999999999997	-0.004605	0.00732	-0.000536	0.000621	-0.013857	0.004769	-0.121108	0.017877
0.527499999999997	-0.003078	0.006045	-0.000442	0.002775	-0.014083	0.005466	-0.276402	0.019342
0.527999999999997	0.000856	-0.000523	-0.001603	0.003445	-0.012171	0.006534	-0.320598	0.018964
0.528499999999997	0.003847	-0.017229	-0.004226	0.002548	-0.008164	0.00639	-0.239403	0.01722
0.528999999999997	0.004684	-0.037367	-0.006875	8.9e-05	0.002139	0.004445	-0.138819	0.013275
0.529499999999997	0.003972	-0.049861	-0.008017	-0.002626	0.022049	0.002812	-0.119286	0.007594
0.529999999999997	0.002808	-0.051637	-0.008696	-0.003265	0.044001	0.001677	-0.166379	0.003522
0.530499999999997	0.002759	-0.047752	-0.010761	-0.002587	0.052493	0.00013	-0.196065	0.002252
0.530999999999997	0.00381	-0.044057	-0.014547	-0.002249	0.041955	-0.000986	-0.167307	0.001091
0.531499999999997	0.004591	-0.04455	-0.018901	-0.001452	0.024794	-0.001931	-0.108853	-0.001659
0.531999999999997	0.004646	-0.051485	-0.020988	5.5e-05	0.015255	-0.004141	-0.057531	-0.002672
0.532499999999997	0.004232	-0.061256	-0.017245	0.000294	0.01363	-0.005947	-0.0172	0.002365
0.532999999999997	0.003347	-0.063726	-0.008319	-0.001144	0.01274	-0.004986	0.02094	0.011742
0.533499999999997	0.002496	-0.050149	-0.000344	-0.001922	0.009743	-0.002772	0.05362	0.01893
0.533999999999997	0.002486	-0.019211	0.002545	-0.000789	0.006119	-0.00102	0.074978	0.019093
0.534499999999997	0.001979	0.020656	0.003695	0.001702	0.003012	0.000692	0.088983	0.01269
0.534999999999996	-0.000552	0.050975	0.00971	0.004596	0.00036	0.002088	0.09684	0.003893
0.535499999999996	-0.002784	0.053075	0.020975	0.005937	-0.001888	0.00257	0.088847	-0.003182
0.535999999999996	-0.002405	0.024025	0.02802	0.004501	-0.003121	0.001592	0.063962	-0.006666
0.536499999999996	-0.001477	-0.017984	0.023571	0.001588	-0.002279	-0.001057	0.042223	-0.007425
0.536999999999996	-0.002513	-0.045147	0.014143	-0.000416	-0.000289	-0.002933	0.041267	-0.006644
0.537499999999996	-0.004556	-0.042816	0.009996	-0.000513	0.000137	-0.001831	0.052433	-0.003838
0.537999999999996	-0.005315	-0.025763	0.010923	-0.001191	-0.001365	0.000429	0.055438	0.001161
0.538499999999996	-0.004598	-0.023653	0.009917	-0.003752	-0.003121	0.001385	0.045217	0.00758
0.538999999999996	-0.00406	-0.04434	0.004437	-0.004179	-0.004053	0.000924	0.031265	0.013934
0.539499999999996	-0.004235	-0.063565	-0.000987	-0.001448	-0.004208	5.8e-05	0.021134	0.017531
0.539999999999996	-0.003662	-0.056546	-0.001668	-7.5e-05	-0.004989	0.00049	0.01454	0.018437
0.540499999999996	-0.001545	-0.021938	0.000981	-0.000627	-0.007324	0.002534	0.008618	0.02251
0.540999999999996	0.000464	0.030183	0.002873	0.000115	-0.010167	0.003323	0.003287	0.033693
0.541499999999996	0.000698	0.091176	0.004153	0.001422	-0.012179	0.001872	0.000594	0.045549
0.541999999999996	-0.000495	0.147169	0.007118	0.000626	-0.013214	0.000688	0.001036	0.04792
0.542499999999996	-0.002005	0.178925	0.010136	-0.001269	-0.013581	0.000687	0.002732	0.036785
0.542999999999996	-0.002199	0.175525	0.009669	-0.001688	-0.012755	0.001054	0.003775	0.013775
0.543499999999996	-0.00042	0.137652	0.005285	0.000678	-0.010589	0.000635	0.004006	-0.01517
0.543999999999995	0.000812	0.072644	-0.00108	0.00488	-0.007429	-0.001806	0.00359	-0.042924
0.544499999999995	-0.000163	-0.001604	-0.00744	0.006762	-0.002029	-0.004542	0.003112	-0.066422
0.544999999999995	-0.001108	-0.058095	-0.011855	0.003828	0.006158	-0.00436	0.005576	-0.082381
0.545499999999995	-1.6e-05	-0.078209	-0.012307	-0.000488	0.014218	-0.001482	0.012364	-0.084754
0.545999999999995	0.002131	-0.064833	-0.008443	-0.001501	0.018325	0.00157	0.018867	-0.074336
0.546499999999995	0.003747	-0.03699	-0.003747	0.000728	0.017632	0.002345	0.019193	-0.062024
0.546999999999995	0.003914	-0.015472	-0.002002	0.002756	0.013988	-0.00063	0.012475	-0.056941
0.547499999999995	0.001874	-0.012906	-0.00245	0.002192	0.009324	-0.00471	0.003383	-0.058628
0.547999999999995	-0.000578	-0.031255	-0.002934	-0.000797	0.006248	-0.005698	-0.001705	-0.062973
0.548499999999995	0.000165	-0.063338	-0.003177	-0.003471	0.006457	-0.004329	-0.000473	-0.066989
0.548999999999995	0.003201	-0.094049	-0.002385	-0.003482	0.007148	-0.003543	0.003218	-0.066449
0.549499999999995	0.003658	-0.101393	0.000615	-0.001475	0.005036	-0.003631	0.004416	-0.055876
0.549999999999995	0.000752	-0.065244	0.004488	0.000663	0.000809	-0.003411	0.001442	-0.034179
0.550499999999995	-0.000988	0.011474	0.00626	0.000664	-0.003405	-0.001781	-0.004806	-0.008904
0.550999999999995	0.000794	0.087755	0.004118	-0.002194	-0.006618	0.000716	-0.011986	0.009737
0.551499999999995	0.003604	0.110552	-0.001513	-0.005058	-0.008678	0.002247	-0.017961	0.019272
0.551999999999995	0.005497	0.070262	-0.007815	-0.004652	-0.009544	0.002618	-0.021841	0.025363
0.552499999999995	0.007957	0.014666	-0.011671	-0.001217	-0.009396	0.003429	-0.023115	0.032486
0.552999999999994	0.011774	-0.006004	-0.012308	0.001871	-0.009013	0.005471	-0.023352	0.038389
0.553499999999994	0.01349	0.009519	-0.010341	0.002727	-0.009107	0.006367	-0.028227	0.040205
0.553999999999994	0.010073	0.030981	-0.007103	0.00247	-0.008748	0.003961	-0.041666	0.04219
0.554499999999994	0.004264	0.041453	-0.004529	0.001994	-0.007044	0.00102	-0.056905	0.053122
0.554999999999994	0.00075	0.044395	-0.002707	0.001494	-0.006772	0.000367	-0.061263	0.077145
0.555499999999994	0.000382	0.042594	-0.000259	0.001611	-0.009862	-6.6e-05	-0.050985	0.106386
0.555999999999994	0.001166	0.030846	0.002786	0.001774	-0.011996	-0.002114	-0.032939	0.122102
0.556499999999994	0.001723	0.010231	0.004859	0.000291	-0.008928	-0.003419	-0.008658	0.109734
0.556999999999994	0.001763	-0.006152	0.00442	-0.002234	-0.002572	-0.002281	0.034203	0.075366
0.557499999999994	0.001423	-0.011015	0.002428	-0.004271	0.002315	-0.000349	0.097855	0.038736
0.557999999999994	0.000411	-0.013708	0.00237	-0.005711	0.002804	0.001099	0.146029	0.010557
0.558499999999994	-0.001737	-0.023054	0.005342	-0.005281	-0.000578	0.0021	0.132674	-0.011919
0.558999999999994	-0.003131	-0.030537	0.008975	-0.002315	-0.004033	0.003063	0.066481	-0.031821
0.559499999999994	-0.001594	-0.024975	0.011393	0.000391	-0.003068	0.004396	0.007532	-0.045191
0.559999999999994	0.001194	-0.01572	0.012166	0.000977	0.001995	0.00531	-0.013895	-0.044096
0.560499999999994	0.002554	-0.021436	0.011584	0.00084	0.005267	0.005343	-0.03174	-0.024483
0.560999999999994	0.002226	-0.041767	0.010049	0.001055	0.003597	0.00472	-0.079502	0.009969
0.561499999999994	0.001098	-0.059923	0.006691	0.000732	0.000174	0.002467	-0.133029	0.048497
0.561999999999994	-0.00059	-0.068045	0.000378	-0.001071	-0.00184	-0.001541	-0.143891	0.074818
0.562499999999993	-0.002546	-0.074749	-0.007059	-0.00333	-0.002768	-0.004685	-0.104187	0.076546
0.562999999999993	-0.002883	-0.090317	-0.011477	-0.003746	-0.004079	-0.004696	-0.052084	0.056777
0.563499999999993	-0.001115	-0.1126	-0.010729	-0.002057	-0.005959	-0.002975	-0.022277	0.030036
0.563999999999993	-0.000352	-0.126656	-0.006228	-6.3e-05	-0.007013	-0.002289	-0.012418	0.007755
0.564499999999993	-0.002631	-0.11711	-0.001249	0.001195	-0.006953	-0.002377	0.000275	-0.007509
0.564999999999993	-0.005591	-0.086834	0.002258	0.001145	-0.007609	-0.001629	0.025696	-0.016387
0.565499999999993	-0.005589	-0.062816	0.005259	-0.00034	-0.009888	-0.000806	0.052161	-0.017492
0.565999999999993	-0.003096	-0.067826	0.008813	-0.001114	-0.012469	-0.000847	0.066768	-0.010525
0.566499999999993	-0.00215	-0.085137	0.011715	0.000192	-0.013831	0.000312	0.076216	-0.001529
0.566999999999993	-0.004001	-0.074675	0.012819	0.00114	-0.014293	0.004365	0.092785	0.000332
0.567499999999993	-0.006196	-0.026278	0.012894	0.000739	-0.014783	0.0088	0.101828	-0.007986
0.567999999999993	-0.005943	0.026157	0.011507	0.001123	-0.014741	0.010893	0.073861	-0.020646
0.568499999999993	-0.00221	0.048485	0.006945	0.002093	-0.014021	0.010978	0.015001	-0.029974
0.568999999999993	0.002739	0.048627	0.000996	0.002127	-0.013037	0.009172	-0.029445	-0.035068
0.569499999999993	0.005319	0.064654	-0.001958	0.001674	-0.009871	0.005426	-0.032177	-0.042115
0.569999999999993	0.004641	0.116449	-0.000907	0.001113	-0.002275	0.001762	-0.014477	-0.055393
0.570499999999993	0.00286	0.178413	0.000286	0.000249	0.007085	-0.000832	-0.010498	-0.069733
0.570999999999993	0.00196	0.203319	-0.0022	0.000255	0.010422	-0.003884	-0.027507	-0.074539
0.571499999999992	0.001833	0.173123	-0.007556	0.001661	0.002421	-0.007746	-0.050417	-0.067218
0.571999999999992	0.000766	0.116913	-0.012337	0.002395	-0.012453	-0.010801	-0.065617	-0.057151
0.572499999999992	-0.002938	0.074425	-0.015106	0.000791	-0.023538	-0.011846	-0.072461	-0.052466
0.572999999999992	-0.007934	0.056127	-0.016198	-0.002737	-0.024513	-0.01009	-0.082713	-0.051079
0.573499999999992	-0.010279	0.045787	-0.015223	-0.0063	-0.018108	-0.005719	-0.111586	-0.045333
0.573999999999992	-0.008149	0.02986	-0.011708	-0.006883	-0.010991	-0.001575	-0.153301	-0.030768
0.574499999999992	-0.003967	0.011472	-0.006509	-0.002923	-0.005894	-0.000582	-0.154315	-0.012042
0.574999999999992	-0.001821	-0.003004	-0.001865	0.002663	-0.001363	-0.001731	-0.040908	0.003485
0.575499999999992	-0.003442	-0.015784	-3e-05	0.005141	0.002282	-0.001706	0.178661	0.017004
0.575999999999992	-0.006928	-0.028096	-0.000374	0.004464	0.003099	-0.000119	0.359912	0.032645
0.576499999999992	-0.008779	-0.026906	0.000499	0.003032	0.003552	0.000897	0.347472	0.044748
0.576999999999992	-0.007441	0.0052	0.004164	0.001223	0.008828	0.000658	0.158064	0.045616
0.577499999999992	-0.004941	0.059821	0.007828	0.000974	0.018071	-0.000312	-0.035635	0.040927
0.577999999999992	-0.0034	0.094267	0.007834	0.002885	0.02458	-0.001146	-0.105349	0.041009
0.578499999999992	-0.002282	0.071196	0.004748	0.004011	0.024502	-0.00125	-0.076827	0.043646
0.578999999999992	-0.000961	0.004022	0.002178	0.004566	0.021399	-0.001565	-0.038292	0.040807
0.579499999999992	-0.00092	-0.055888	0.001679	0.004898	0.021972	-0.002734	-0.021924	0.034035
0.579999999999992	-0.002824	-0.076613	0.002175	0.002976	0.02677	-0.003661	-0.006189	0.02984
0.580499999999991	-0.003463	-0.06914	0.001731	0.000451	0.029933	-0.003811	0.020889	0.026541
0.580999999999991	7.7e-05	-0.056785	-0.00167	9.6e-05	0.028376	-0.004491	0.043819	0.016881
0.581499999999991	0.006336	-0.044958	-0.007409	0.000787	0.024457	-0.006284	0.047005	-0.001394
0.581999999999991	0.011992	-0.026378	-0.01122	0.000702	0.021254	-0.007796	0.032901	-0.024908
0.582499999999991	0.014222	-0.002287	-0.01027	0.000406	0.02009	-0.007448	0.013999	-0.048834
0.582999999999991	0.012769	0.015042	-0.006494	0.000533	0.021251	-0.004366	-0.000626	-0.068264
0.583499999999991	0.011056	0.016162	-0.003204	0.000772	0.023478	-0.00013	-0.010918	-0.07848
0.583999999999991	0.011814	0.000299	-0.001114	0.000855	0.023339	0.001546	-0.025478	-0.076889
0.584499999999991	0.013309	-0.026185	0.001098	-0.000134	0.017707	0.000217	-0.057632	-0.067801
0.584999999999991	0.012161	-0.052284	0.003182	-0.002124	0.006615	-0.000792	-0.113801	-0.061017
0.585499999999991	0.007956	-0.069813	0.003191	-0.002989	-0.007247	0.000203	-0.167554	-0.059651
0.585999999999991	0.003039	-0.075498	0.001131	-0.001957	-0.020847	0.002266	-0.153473	-0.054978
0.586499999999991	-0.000601	-0.061087	-0.000208	-0.001043	-0.032729	0.00495	-0.032902	-0.038901
0.586999999999991	-0.003255	-0.015446	0.001073	-0.001161	-0.043428	0.008115	0.126377	-0.015369
0.587499999999991	-0.006723	0.052656	0.002819	-0.000888	-0.051781	0.009958	0.192156	0.003426
0.587999999999991	-0.011688	0.106247	0.002093	-0.000498	-0.050613	0.008887	0.115938	0.009696
0.588499999999991	-0.016873	0.109772	-8.6e-05	-0.001425	-0.030784	0.00619	-0.007192	0.007533
0.588999999999991	-0.019427	0.065751	-0.000503	-0.003186	0.004923	0.004402	-0.055582	0.0053
0.58949999999999	-0.016923	0.010521	0.001477	-0.003709	0.035357	0.003506	-0.015455	0.007142
0.58999999999999	-0.010775	-0.022698	0.003138	-0.001122	0.040746	0.001585	0.033127	0.013047
0.59049999999999	-0.004955	-0.025202	0.002673	0.002418	0.02429	-0.001577	0.029282	0.018321
0.59099999999999	-0.002197	-0.00839	0.001953	0.002626	0.000874	-0.004808	-0.010699	0.019267
0.59149999999999	-0.00255	0.010172	0.00345	0.000558	-0.020776	-0.006743	-0.039468	0.01826
0.59199999999999	-0.003562	0.019206	0.006238	-0.000441	-0.031547	-0.006052	-0.042956	0.016308
0.59249999999999	-0.002218	0.016857	0.006961	-0.000666	-0.020432	-0.003953	-0.037357	0.013257
0.59299999999999	0.002673	0.009107	0.004546	8.1e-05	0.007904	-0.003341	-0.026452	0.013534
0.59349999999999	0.009004	0.006347	0.001455	0.002743	0.033908	-0.003696	-0.000153	0.019825
0.59399999999999	0.012731	0.013348	-0.000116	0.004331	0.047286	-0.002557	0.029295	0.027985
0.59449999999999	0.011614	0.020986	-0.000706	0.002748	0.055118	-0.000763	0.03025	0.032713
0.59499999999999	0.006947	0.014889	-0.001688	0.000525	0.065588	-0.000125	-0.004794	0.032238
0.59549999999999	0.00288	-0.006157	-0.002668	-0.001288	0.074309	0.000834	-0.053971	0.026006
0.59599999999999	0.001453	-0.028139	-0.002394	-0.003343	0.068973	0.003951	-0.099473	0.015286
0.59649999999999	-0.000285	-0.037473	-0.000845	-0.003841	0.046496	0.007637	-0.124128	0.005487
0.59699999999999	-0.002597	-0.032762	0.001274	-0.002461	0.019876	0.009103	-0.08601	0.000138
0.59749999999999	-0.001426	-0.023485	0.00348	-0.001791	0.002423	0.00821	0.042589	-0.00215
0.59799999999999	0.002608	-0.019298	0.00525	-0.002372	-0.006891	0.00738	0.204279	-0.002176
0.598499999999989	0.004215	-0.021328	0.00605	-0.002874	-0.018999	0.007271	0.28322	0.001281
0.598999999999989	0.001688	-0.024018	0.005162	-0.003538	-0.042361	0.005818	0.226879	0.006816
0.599499999999989	-0.001	-0.023059	0.002265	-0.004844	-0.072544	0.002854	0.103008	0.009868
0.599999999999989	-1.6e-05	-0.019694	-0.001159	-0.005227	-0.091203	0.000743	0.014573	0.008725
0.600499999999989	0.004037	-0.01662	-0.003762	-0.003197	-0.081607	0.001266	-0.006181	0.006371
0.600999999999989	0.008289	-0.014098	-0.00585	0.000411	-0.049624	0.00308	0.002639	0.006791
0.601499999999989	0.01034	-0.010351	-0.0069	0.002745	-0.02225	0.002714	0.002045	0.011465
0.601999999999989	0.009217	-0.002684	-0.006389	0.002154	-0.017412	3e-06	-0.01157	0.018347
0.602499999999989	0.006577	0.008214	-0.005992	0.000813	-0.025361	-0.002164	-0.024798	0.02504
0.602999999999989	0.005544	0.016526	-0.006855	0.000649	-0.027503	-0.002467	-0.031106	0.030973
0.603499999999989	0.006272	0.015626	-0.007924	0.000659	-0.02022	-0.001873	-0.031007	0.036412
0.603999999999989	0.005843	0.004044	-0.008194	5.4e-05	-0.011225	-0.001359	-0.027127	0.040576
0.604499999999989	0.004088	-0.010468	-0.007933	-0.000869	-0.002678	1.6e-05	-0.024716	0.041457
0.604999999999989	0.003515	-0.018265	-0.007551	-0.002229	0.008859	0.002247	-0.02823	0.039766
0.605499999999989	0.003293	-0.019497	-0.00715	-0.00368	0.020027	0.002715	-0.03826	0.040305
0.605999999999989	0.000891	-0.022695	-0.007657	-0.004247	0.022477	0.00072	-0.05194	0.046328
0.606499999999989	-0.002259	-0.034046	-0.009769	-0.005051	0.015704	-0.001488	-0.063793	0.056275
0.606999999999989	-0.003548	-0.049018	-0.011973	-0.007142	0.007614	-0.002713	-0.069772	0.069557
0.607499999999988	-0.003134	-0.055123	-0.011886	-0.008197	0.003792	-0.003298	-0.069963	0.088674
0.607999999999988	-0.00204	-0.045435	-0.009282	-0.006747	0.003383	-0.002513	-0.067741	0.110008
0.608499999999988	-0.000999	-0.028527	-0.006332	-0.003906	0.002871	-0.000662	-0.067186	0.120228
0.608999999999988	-0.000385	-0.022648	-0.004134	-0.001296	-0.000839	-0.00071	-0.063092	0.107237
0.609499999999988	0.000138	-0.033947	-0.0016	-0.001412	-0.007496	-0.002421	-0.038377	0.072051
0.609999999999988	0.000669	-0.041695	0.002133	-0.004459	-0.013748	-0.00241	0.010275	0.027976
0.610499999999988	0.000317	-0.019697	0.007025	-0.006062	-0.01879	-0.001568	0.049134	-0.012276
0.610999999999988	-0.001153	0.027105	0.012469	-0.004038	-0.023449	-0.002927	0.034377	-0.04591
0.611499999999988	-0.001665	0.064302	0.017043	-0.001887	-0.023794	-0.005024	-0.03328	-0.075238
0.611999999999988	0.000223	0.067005	0.019425	-0.00127	-0.015567	-0.004954	-0.102727	-0.101035
0.612499999999988	0.003061	0.04444	0.019958	-9.2e-05	-0.002319	-0.003324	-0.131026	-0.124955
0.612999999999988	0.004606	0.023291	0.019397	0.00149	0.007782	-0.00265	-0.128224	-0.147718
0.613499999999988	0.003257	0.016506	0.016679	0.002499	0.009069	-0.004028	-0.128201	-0.160577
0.613999999999988	-0.000752	0.01842	0.01092	0.003485	0.003727	-0.004874	-0.133811	-0.151375
0.614499999999988	-0.005108	0.021202	0.003957	0.003683	0.002437	-0.001852	-0.116568	-0.121022
0.614999999999988	-0.007721	0.021737	-0.001004	0.002298	0.011877	0.002731	-0.057819	-0.085263
0.615499999999988	-0.008227	0.018776	-0.002518	0.001097	0.02279	0.004158	0.035986	-0.059028
0.615999999999988	-0.007272	0.014348	-0.002691	0.001782	0.018797	0.003405	0.146765	-0.043141
0.616499999999988	-0.005424	0.015785	-0.004258	0.003621	-0.003149	0.005072	0.244941	-0.028965
0.616999999999987	-0.003938	0.028053	-0.005907	0.005693	-0.024544	0.009335	0.287032	-0.01076
0.617499999999987	-0.004079	0.044239	-0.004447	0.007191	-0.020333	0.012262	0.248267	0.009726
0.617999999999987	-0.004995	0.05111	-0.000888	0.006483	0.014152	0.012934	0.160176	0.027784
0.618499999999987	-0.005649	0.043832	0.000432	0.004755	0.05198	0.012654	0.090242	0.041893
0.618999999999987	-0.006233	0.030447	-0.001569	0.004448	0.059	0.010196	0.072466	0.051017
0.619499999999987	-0.00662	0.021315	-0.003095	0.004328	0.03293	0.003781	0.072963	0.049861
0.619999999999987	-0.006762	0.01753	-0.001685	0.003346	0.00559	-0.005344	0.043211	0.03456
0.620499999999987	-0.007415	0.011333	-0.000284	0.003173	0.000995	-0.012426	-0.00945	0.009721
0.620999999999987	-0.009206	-0.004641	-0.001512	0.003896	0.009873	-0.012659	-0.041972	-0.015875
0.621499999999987	-0.011053	-0.027357	-0.002742	0.003551	0.015216	-0.00621	-0.052328	-0.037579
0.621999999999987	-0.010134	-0.043092	-0.001087	0.001857	0.021373	0.002017	-0.078397	-0.053967
0.622499999999987	-0.004975	-0.043065	0.002545	0.000649	0.039746	0.007577	-0.118096	-0.063703
0.622999999999987	0.00168	-0.034918	0.006156	0.001308	0.060701	0.009528	-0.114891	-0.067447
0.623499999999987	0.005008	-0.030745	0.008556	0.003387	0.062082	0.009076	-0.044596	-0.064371
0.623999999999987	0.004172	-0.029225	0.009203	0.004979	0.041363	0.007141	0.037006	-0.047176
0.624499999999987	0.002905	-0.017807	0.007977	0.00479	0.019217	0.003878	0.06066	-0.011461
0.624999999999987	0.003484	0.006938	0.004963	0.003539	0.010926	-0.000195	0.02025	0.030578
0.625499999999987	0.00458	0.02885	0.00128	0.002634	0.011634	-0.004329	-0.034651	0.057255
0.625999999999986	0.004645	0.030921	-0.001174	0.003253	0.010313	-0.007619	-0.056513	0.061597
0.626499999999986	0.004362	0.01695	-0.001885	0.005257	0.004357	-0.008465	-0.040401	0.057101
0.626999999999986	0.004796	0.004198	-0.001796	0.006506	-0.001985	-0.007094	-0.019797	0.055201
0.627499999999986	0.004737	0.002555	-0.0013	0.006171	-0.006248	-0.006924	-0.025879	0.050774
0.627999999999986	0.003032	0.007998	-0.000155	0.00544	-0.011027	-0.00963	-0.052414	0.034577
0.628499999999986	0.000756	0.010757	0.001592	0.004777	-0.02012	-0.012282	-0.065629	0.009185
0.628999999999986	-0.001665	0.005424	0.00324	0.00431	-0.033203	-0.012663	-0.037989	-0.013103
0.629499999999986	-0.004655	-0.005509	0.003008	0.003904	-0.04688	-0.012787	0.034546	-0.024133
0.629999999999986	-0.007226	-0.015562	-0.000389	0.002582	-0.062224	-0.014366	0.126956	-0.025776
0.630499999999986	-0.008321	-0.021689	-0.005605	0.00026	-0.08326	-0.015248	0.186724	-0.023292
0.630999999999986	-0.008542	-0.028164	-0.010066	-0.000759	-0.102339	-0.011753	0.166898	-0.018877
0.631499999999986	-0.008745	-0.039597	-0.012774	0.000914	-0.098795	-0.002227	0.075983	-0.012345
0.631999999999986	-0.008265	-0.053304	-0.014236	0.00221	-0.063662	0.009282	-0.01985	-0.003308
0.632499999999986	-0.006243	-0.064872	-0.013971	0.000791	-0.017403	0.014152	-0.060984	0.008162
0.632999999999986	-0.003775	-0.074989	-0.011385	-0.00107	0.010374	0.008816	-0.052158	0.019692
0.633499999999986	-0.002849	-0.08342	-0.009039	-0.001458	0.013574	-0.000952	-0.044692	0.028408
0.633999999999986	-0.003201	-0.075931	-0.008808	-0.001774	0.008172	-0.006795	-0.074127	0.035384
0.634499999999986	-0.003168	-0.030243	-0.006645	-0.002863	0.005736	-0.005468	-0.128015	0.043385
0.634999999999985	-0.002344	0.04832	0.001331	-0.003289	0.005224	-0.001298	-0.162867	0.051424
0.635499999999985	-0.000304	0.111455	0.011528	-0.003086	0.003593	0.000212	-0.139456	0.05714
0.635999999999985	0.003032	0.113945	0.017099	-0.003178	0.001357	-0.000247	-0.048238	0.064168
0.636499999999985	0.006911	0.068382	0.0155	-0.003481	0.000772	0.000526	0.078614	0.077521
0.636999999999985	0.011976	0.028484	0.010389	-0.004129	0.001797	0.001715	0.174845	0.091668
0.637499999999985	0.018135	0.023806	0.007784	-0.004884	0.002018	0.001064	0.186142	0.093563
0.637999999999985	0.022286	0.038925	0.009601	-0.005536	0.001616	0.000142	0.122461	0.075732
0.638499999999985	0.020996	0.047564	0.01206	-0.005624	0.001781	0.001929	0.048001	0.042908
0.638999999999985	0.01385	0.041177	0.01132	-0.004177	0.000142	0.00594	0.015687	0.007161
0.639499999999985	0.005423	0.02745	0.008094	-0.001968	-0.004384	0.008947	0.027862	-0.024635
0.639999999999985	0.00172	0.015055	0.00528	-0.000824	-0.007494	0.008894	0.05732	-0.054396
0.640499999999985	0.002847	0.006909	0.003337	-0.00157	-0.005452	0.006715	0.080017	-0.08255
0.640999999999985	0.004077	0.002993	0.001403	-0.00314	-0.000148	0.00421	0.079148	-0.101849
0.641499999999985	0.003322	0.001696	0.000721	-0.004111	0.004628	0.001884	0.043454	-0.103406
0.641999999999985	0.001863	0.00109	0.002119	-0.004099	0.007859	-0.001521	-0.014514	-0.085533
0.642499999999985	0.000487	0.001169	0.003557	-0.002717	0.010097	-0.007433	-0.053268	-0.058579
0.642999999999985	-0.000396	0.002956	0.003562	-0.001829	0.011789	-0.012912	-0.040344	-0.03987
0.643499999999985	0.000149	0.00524	0.002804	-0.003209	0.012593	-0.011329	0.007078	-0.036694
0.643999999999984	0.002102	0.005379	0.002127	-0.003829	0.011796	-0.000829	0.032218	-0.038756
0.644499999999984	0.004339	0.004038	0.001512	-0.002863	0.011925	0.011165	-0.008889	-0.034846
0.644999999999984	0.006212	0.004947	0.000368	-0.003747	0.01549	0.014668	-0.108159	-0.027606
0.645499999999984	0.007215	0.008937	-0.00119	-0.005308	0.018177	0.008223	-0.213337	-0.023782
0.645999999999984	0.006758	0.011157	-0.002698	-0.003321	0.01557	0.000338	-0.273486	-0.01935
0.646499999999984	0.006224	0.006759	-0.004224	0.001116	0.01256	-0.001704	-0.289401	-0.004592
0.646999999999984	0.007264	-0.003032	-0.00532	0.003292	0.017681	0.000666	-0.312424	0.020709
0.647499999999984	0.008658	-0.01344	-0.005372	0.001829	0.03345	0.003	-0.362538	0.044045
0.647999999999984	0.00794	-0.021445	-0.004583	-0.000625	0.054771	0.003517	-0.355297	0.052946
0.648499999999984	0.00389	-0.02769	-0.004013	-0.001686	0.071201	0.002342	-0.175211	0.050426
0.648999999999984	-0.002202	-0.035078	-0.004955	-0.001496	0.072616	0.001253	0.151907	0.051612
0.649499999999984	-0.007589	-0.043879	-0.007396	-0.000593	0.05535	0.001868	0.434295	0.065818
0.649999999999984	-0.011028	-0.04921	-0.009766	0.001313	0.021254	0.00338	0.511526	0.0876
0.650499999999984	-0.012938	-0.046097	-0.010243	0.003595	-0.02347	0.00496	0.404926	0.100801
0.650999999999984	-0.014025	-0.035926	-0.008798	0.004917	-0.065192	0.00601	0.232584	0.09149
0.651499999999984	-0.014269	-0.026087	-0.007055	0.004643	-0.086572	0.004443	0.067563	0.060595
0.651999999999984	-0.012815	-0.021699	-0.005376	0.003384	-0.081287	0.000165	-0.065646	0.021859
0.652499999999984	-0.010414	-0.018279	-0.003279	0.002478	-0.062897	-0.003091	-0.134974	-0.011985
0.652999999999983	-0.009165	-0.006573	-0.001113	0.002532	-0.050157	-0.00283	-0.118435	-0.03818
0.653499999999983	-0.008812	0.014131	0.001107	0.003328	-0.047573	6.5e-05	-0.052482	-0.060259
0.653999999999983	-0.007952	0.031284	0.003058	0.003771	-0.050293	0.004044	-0.006775	-0.081162
0.654499999999983	-0.007592	0.032216	0.003465	0.002668	-0.057592	0.006786	-0.009404	-0.100316
0.654999999999983	-0.008576	0.020432	0.002545	0.000757	-0.065091	0.006233	-0.029815	-0.113538
0.655499999999983	-0.008434	0.011091	0.001858	-0.00116	-0.053434	0.004143	-0.036499	-0.116951
0.655999999999983	-0.005656	0.011048	0.002101	-0.00271	-0.009996	0.002928	-0.032557	-0.109839
0.656499999999983	-0.002934	0.013384	0.002598	-0.002261	0.042101	0.001139	-0.020861	-0.092994
0.656999999999983	-0.00231	0.011229	0.001833	-0.000941	0.063748	-0.002208	0.019072	-0.068374
0.657499999999983	-0.002253	0.006762	-0.000671	-0.001979	0.048424	-0.003935	0.084169	-0.038697
0.657999999999983	-0.001575	0.005219	-0.003787	-0.004354	0.027865	-0.00206	0.114295	-0.006743
0.658499999999983	-0.001346	0.006804	-0.006753	-0.005394	0.027387	-1.8e-05	0.052573	0.021727
0.658999999999983	-0.001481	0.007672	-0.009386	-0.005733	0.037712	-0.001671	-0.077107	0.038818
0.659499999999983	-0.000213	0.005296	-0.010824	-0.00644	0.039035	-0.005805	-0.188431	0.042238
0.659999999999983	0.002038	0.000478	-0.010254	-0.006659	0.032824	-0.008421	-0.208167	0.037667
0.660499999999983	0.003749	-0.003418	-0.008388	-0.006529	0.033521	-0.007107	-0.11119	0.031621
0.660999999999983	0.004704	-0.004631	-0.006347	-0.006266	0.042393	-0.002698	0.070336	0.026363
0.661499999999983	0.004243	-0.005389	-0.0038	-0.004909	0.048238	0.00199	0.239537	0.021014
0.661999999999982	0.002077	-0.007265	-0.00054	-0.003225	0.045369	0.004386	0.296339	0.015182
0.662499999999982	-0.000369	-0.00908	0.001631	-0.001437	0.035056	0.003118	0.245923	0.013235
0.662999999999982	-0.001426	-0.009961	0.001209	0.001284	0.015084	0.00015	0.194493	0.02121
0.663499999999982	-0.000578	-0.010607	-0.000269	0.002711	-0.016267	-0.000922	0.214499	0.037834
0.663999999999982	0.001284	-0.011002	-0.000261	0.00058	-0.045623	0.000148	0.265191	0.054871
0.664499999999982	0.002878	-0.010065	0.001047	-0.002357	-0.052168	0.002018	0.25636	0.065901
0.664999999999982	0.003801	-0.009123	0.001288	-0.001618	-0.034141	0.004406	0.143528	0.069491
0.665499999999982	0.004986	-0.009731	-0.000434	0.002157	-0.01136	0.006395	-0.036585	0.065606
0.665999999999982	0.006516	-0.009515	-0.00191	0.00523	-0.0009	0.00628	-0.185141	0.054698
0.666499999999982	0.00683	-0.005927	-0.00048	0.005718	-0.001311	0.0036	-0.214875	0.039415
0.666999999999982	0.006139	-0.000411	0.003319	0.003584	-0.002165	-0.001002	-0.13741	0.022975
0.667499999999982	0.006187	0.003624	0.006151	0.001709	-0.001568	-0.007503	-0.054184	0.006655
0.667999999999982	0.006818	0.005181	0.006073	0.002382	-0.003827	-0.014284	-0.046985	-0.010675
0.668499999999982	0.006348	0.00656	0.004674	0.002956	-0.00613	-0.018084	-0.107994	-0.030933
0.668999999999982	0.004379	0.009109	0.004629	0.001699	-0.001857	-0.018237	-0.179467	-0.050256
0.669499999999982	0.002356	0.010477	0.006383	0.001207	0.007282	-0.015161	-0.220221	-0.055775
0.669999999999982	0.001719	0.008027	0.007238	0.002143	0.012614	-0.009253	-0.223138	-0.040154
0.670499999999982	0.002712	0.001902	0.004637	0.001499	0.010219	-0.003753	-0.202975	-0.015461
0.670999999999982	0.003794	-0.005612	0.000806	-0.000699	0.004954	-0.001994	-0.184694	0.001567
0.671499999999981	0.003247	-0.010628	0.000698	-0.001693	0.003042	-0.002638	-0.18381	0.010416
0.671999999999981	0.002065	-0.010322	0.004737	-0.001514	0.004407	-0.001888	-0.182393	0.021046
0.672499999999981	0.001725	-0.006668	0.007952	-0.000548	0.004496	0.000834	-0.13088	0.036652
0.672999999999981	0.00213	-0.003764	0.007262	0.001215	0.002494	0.003088	0.008363	0.050324
0.673499999999981	0.003359	-0.002835	0.004959	0.0017	0.001822	0.003503	0.19861	0.05582
0.673999999999981	0.005011	-0.003487	0.003631	0.00115	0.002426	0.003244	0.323375	0.056563
0.674499999999981	0.005451	-0.005773	0.002944	0.00244	0.000248	0.003701	0.287749	0.059784
0.674999999999981	0.003623	-0.007113	0.002173	0.004595	-0.004727	0.004049	0.125292	0.065622
0.675499999999981	0.000125	-0.001154	0.001633	0.004362	-0.006919	0.004129	-0.032621	0.065066
0.675999999999981	-0.003452	0.01473	0.002275	0.002277	-0.004457	0.005084	-0.089482	0.045604
0.676499999999981	-0.005481	0.030714	0.004511	0.001649	-0.00383	0.005599	-0.059081	2.9e-05
0.676999999999981	-0.004992	0.032111	0.006459	0.003497	-0.010961	0.00347	-0.022628	-0.065972
0.677499999999981	-0.002966	0.018298	0.00607	0.00478	-0.021802	-0.00128	-0.042454	-0.134809
0.677999999999981	-0.001924	0.003962	0.004408	0.003056	-0.025389	-0.005943	-0.113337	-0.188503
0.678499999999981	-0.002426	0.000168	0.004121	0.000535	-0.016261	-0.006738	-0.171688	-0.217491
0.678999999999981	-0.002451	0.003261	0.005875	-0.000446	-0.001909	-0.003062	-0.151717	-0.219189
0.679499999999981	-0.001302	0.004075	0.007267	-0.000562	0.005379	0.001717	-0.047362	-0.198033
0.679999999999981	-0.000245	0.00039	0.005165	-0.000721	0.002043	0.003796	0.089354	-0.167705
0.68049999999998	0.000383	-0.002805	-0.001733	-0.001387	-0.00523	0.001772	0.212965	-0.141168
0.68099999999998	0.000604	-0.00138	-0.011978	-0.00174	-0.009397	-0.002669	0.315868	-0.113681
0.68149999999998	-0.000172	0.001951	-0.021434	-6.7e-05	-0.010034	-0.006104	0.386907	-0.06393
0.68199999999998	-0.001341	0.001931	-0.026696	0.002784	-0.009552	-0.004035	0.383087	0.020318
0.68249999999998	-0.001814	-0.001423	-0.02878	0.004763	-0.007495	0.0064	0.275227	0.118598
0.68299999999998	-0.001391	-0.004694	-0.031211	0.005001	-0.002742	0.019425	0.10151	0.187467
0.68349999999998	0.000109	-0.005489	-0.035611	0.003456	0.002194	0.02321	-0.050331	0.200107
0.68399999999998	0.00193	-0.00257	-0.039755	0.001555	0.003314	0.014363	-0.108212	0.168201
0.68449999999998	0.001879	0.001834	-0.039123	0.000977	-0.000141	0.002274	-0.060848	0.118083
0.68499999999998	-0.000887	0.003105	-0.030267	0.002062	-0.005521	-0.002944	0.039263	0.061616
0.68549999999998	-0.004189	0.00154	-0.011961	0.003236	-0.009406	-0.000398	0.11279	-4.6e-05
0.68599999999998	-0.005527	0.001614	0.014491	0.002332	-0.009659	0.003251	0.116366	-0.058257
0.68649999999998	-0.005081	0.003569	0.043246	0.000828	-0.006578	0.00173	0.074009	-0.094398
0.68699999999998	-0.004297	0.003571	0.064206	0.001097	0.000236	-0.003501	0.033299	-0.095678
0.68749999999998	-0.003324	0.001227	0.067451	0.001588	0.014191	-0.005826	-0.003583	-0.06813
0.68799999999998	-0.001755	-0.000363	0.051261	0.000976	0.032663	-0.003252	-0.080298	-0.031125
0.68849999999998	-0.000959	-9.1e-05	0.026387	0.000957	0.042111	-6.5e-05	-0.210371	-0.002043
0.68899999999998	-0.002619	0.000828	0.007237	0.002305	0.033762	0.000872	-0.329513	0.011338
0.689499999999979	-0.00526	0.00129	-0.000347	0.003037	0.015615	0.001361	-0.352623	0.008617
0.689999999999979	-0.005612	0.001095	-0.000312	0.001718	0.00142	0.002299	-0.260074	-0.005022
0.690499999999979	-0.002425	0.00075	0.001243	-0.000912	-0.004055	0.002134	-0.101472	-0.019088
0.690999999999979	0.001552	-1e-05	0.002072	-0.002917	-0.005465	0.00048	0.051269	-0.020795
0.691499999999979	0.002006	-0.001806	0.003008	-0.002486	-0.008132	-0.001954	0.124676	-0.003297
0.691999999999979	-0.00024	-0.003114	0.004584	-0.001033	-0.013123	-0.002926	0.079673	0.02684
0.692499999999979	-0.000464	-0.001931	0.005823	-0.001331	-0.018887	-0.000576	-0.025039	0.057961
0.692999999999979	0.001255	0.000845	0.006191	-0.002727	-0.023847	0.002038	-0.069807	0.085604
0.693499999999979	0.001712	0.002275	0.008002	-0.003051	-0.028153	0.001743	-0.018194	0.106051
0.693999999999979	0.001464	0.000925	0.013414	-0.002463	-0.032447	0.000723	0.041604	0.109109
0.694499999999979	0.002419	-0.001884	0.018603	-0.002546	-0.035208	0.000962	0.031608	0.09251
0.694999999999979	0.003851	-0.004915	0.014414	-0.002606	-0.034499	0.000614	-0.014498	0.072689
0.695499999999979	0.003817	-0.00765	-0.004768	-0.001314	-0.030564	-0.000776	-0.024767	0.065534
0.695999999999979	0.001787	-0.008981	-0.032395	-0.000226	-0.025817	-0.00074	0.004444	0.067777
