Time	L_BF	L_GAL	L_TA	L_VL	R_BF	R_GAL	R_TA	R_VL
0	-0.001028	-0.005288	-0.025152	-0.006674	0.002524	-0.004134	0.00071	-0.002926
0.0005	0.000823	-0.005499	-0.029731	-0.025086	0.00134	0.008514	-0.002229	-0.002524
0.001	0.000722	-0.004981	-0.004635	-0.035338	0.000561	0.016758	-0.003088	-0.005067
0.0015	-0.000696	-0.003324	0.062735	-0.034459	0.000351	0.016683	-0.002858	-0.007684
0.002	-0.001402	-0.001573	0.149717	-0.023232	0.000386	0.011398	-0.003542	-0.005179
0.0025	-0.000357	-0.000994	0.205185	-0.003728	0.001089	0.008604	-0.005072	0.001439
0.003	0.001657	-0.001664	0.191266	0.017429	0.003343	0.011054	-0.005753	0.005226
0.0035	0.002806	-0.003719	0.115538	0.031765	0.005701	0.0156	-0.005397	0.004003
0.004	0.002331	-0.005882	0.016088	0.036459	0.006581	0.019047	-0.005894	0.002209
0.0045	0.000975	-0.004906	-0.070243	0.034036	0.007127	0.020066	-0.007132	0.002378
0.005	-0.001004	-0.001049	-0.117713	0.030273	0.007433	0.017624	-0.007011	0.00412
0.0055	-0.003424	0.001329	-0.119294	0.030425	0.006347	0.012331	-0.007139	0.006408
0.006	-0.004887	0.001016	-0.097277	0.032718	0.004487	0.007091	-0.009788	0.00681
0.0065	-0.004454	0.002226	-0.073998	0.032464	0.002396	0.0041	-0.011864	0.004751
0.007	-0.003251	0.007288	-0.034348	0.030126	0.000511	0.003667	-0.010913	0.003385
0.0075	-0.002911	0.013251	0.037176	0.028583	0.000808	0.005193	-0.009155	0.004464
0.008	-0.00353	0.018017	0.101021	0.029043	0.003644	0.006543	-0.008447	0.006035
0.0085	-0.004269	0.021817	0.114491	0.031468	0.00588	0.00446	-0.008641	0.006206
0.009	-0.004142	0.023261	0.114865	0.031663	0.005192	-0.000871	-0.009488	0.004569
0.0095	-0.003276	0.020072	0.156317	0.023198	0.002962	-0.005676	-0.01106	0.001878
0.01	-0.003746	0.012131	0.190582	0.004457	0.001168	-0.008888	-0.012915	3.4e-05
0.0105	-0.006335	0.003205	0.124181	-0.024171	-0.000449	-0.01196	-0.014123	-0.000988
0.011	-0.008669	-0.001166	-0.022002	-0.062484	-0.002449	-0.014907	-0.014477	-0.002414
0.0115	-0.008462	-0.000476	-0.121235	-0.102476	-0.004245	-0.017083	-0.014401	-0.002711
0.012	-0.006951	-0.000122	-0.106035	-0.126268	-0.005144	-0.018314	-0.014451	-0.000516
0.0125	-0.006647	-0.002943	-0.034421	-0.121263	-0.004023	-0.019214	-0.015221	0.001893
0.013	-0.007181	-0.006424	0.010817	-0.095662	-0.001357	-0.020051	-0.015848	0.001776
0.0135	-0.007644	-0.008373	0.014188	-0.067606	-0.001036	-0.019148	-0.01405	-0.000681
0.014	-0.008753	-0.007932	0.004067	-0.042281	-0.003522	-0.016454	-0.009638	-0.003811
0.0145	-0.010646	-0.004102	-0.00648	-0.012056	-0.003789	-0.018423	-0.005371	-0.005709
0.015	-0.012609	0.001612	-0.021268	0.02566	-0.001092	-0.032083	-0.003582	-0.003993
0.0155	-0.013059	0.005939	-0.032277	0.061435	0.000416	-0.051264	-0.004802	0.000889
0.016	-0.01038	0.007456	-0.030091	0.084638	3.3e-05	-0.059743	-0.007907	0.004603
0.0165	-0.005465	0.007178	-0.031568	0.093046	0.000271	-0.052598	-0.00998	0.003911
0.017	-0.000765	0.007408	-0.05078	0.088618	0.002206	-0.042571	-0.009971	-0.000105
0.0175	0.00184	0.008624	-0.048061	0.070777	0.004384	-0.041914	-0.010724	-0.003861
0.018	0.002191	0.008341	0.025799	0.037703	0.004918	-0.045163	-0.013511	-0.005225
0.0185	0.002537	0.005019	0.13378	-0.007211	0.003909	-0.035423	-0.014912	-0.005077
0.019	0.0049	0.001142	0.180218	-0.050186	0.002536	-0.009321	-0.011703	-0.004983
0.0195	0.007872	0.000675	0.128932	-0.072267	0.001011	0.012618	-0.004805	-0.004921
0.02	0.008258	0.003908	0.016585	-0.066569	-0.000886	0.010435	0.003021	-0.004289
0.0205	0.005425	0.006621	-0.117746	-0.046434	-0.002811	-0.007717	0.009244	-0.003642
0.021	0.002004	0.005385	-0.232217	-0.029744	-0.004191	-0.016192	0.012049	-0.003401
0.0215	6e-05	0.002161	-0.265773	-0.020409	-0.004063	-0.004167	0.012149	-0.003028
0.022	-0.001537	0.00011	-0.211388	-0.009318	-0.001732	0.015935	0.011682	-0.00266
0.0225	-0.003608	-0.001667	-0.151985	0.010436	0.001498	0.028799	0.011984	-0.0029
0.023	-0.003625	-0.004215	-0.153021	0.033754	0.00284	0.032957	0.013432	-0.002823
0.0235	-0.000774	-0.005956	-0.179945	0.0508	0.00096	0.035369	0.014445	-0.000919
0.024	0.001969	-0.006666	-0.170906	0.057317	-0.001771	0.038247	0.011826	0.0017
0.0245	0.002662	-0.00849	-0.121455	0.054887	-0.002308	0.036367	0.004515	0.002689
0.025	0.001391	-0.011325	-0.057569	0.046847	-0.001053	0.025805	-0.004206	0.001519
0.0255	-0.000534	-0.010827	0.014934	0.035289	0.000322	0.011756	-0.009649	-0.000398
0.026	-0.001175	-0.004395	0.097417	0.022627	0.00087	0.003686	-0.009858	0.000511
0.0265	-4.6e-05	0.003861	0.170189	0.012954	0.000392	0.00422	-0.006844	0.004915
0.027	0.001859	0.007063	0.203256	0.008975	0.000614	0.006978	-0.004321	0.007627
0.0275	0.002893	0.003435	0.177864	0.009042	0.002429	0.005667	-0.003605	0.006425
0.028	0.001902	-0.001646	0.095911	0.007175	0.00396	0.000669	-0.003049	0.004645
0.0285	-4.4e-05	-0.004146	-0.00509	0.00018	0.003399	-0.005394	-0.0016	0.005161
0.029	-0.000844	-0.006477	-0.058321	-0.007982	0.000358	-0.0112	-0.000454	0.007826
0.0295	-0.000206	-0.009562	-0.030323	-0.01463	-0.002943	-0.014725	-0.001102	0.009004
0.03	0.000108	-0.009914	0.029799	-0.022014	-0.003113	-0.014848	-0.003007	0.006941
0.0305	-0.001145	-0.00699	0.040335	-0.029497	-0.000851	-0.013879	-0.004395	0.005843
0.031	-0.002222	-0.003509	-0.022119	-0.032648	0.000434	-0.014666	-0.004792	0.007416
0.0315	-0.000322	-0.000853	-0.108695	-0.031401	-0.0004	-0.014952	-0.003982	0.007851
0.032	0.003802	0.000433	-0.157479	-0.030282	-0.002355	-0.009556	-0.000965	0.006437
0.0325	0.006482	0.001007	-0.135041	-0.031452	-0.003729	-0.000419	0.003413	0.00554
0.033	0.005717	0.003537	-0.038207	-0.034586	-0.003134	0.004182	0.006516	0.004618
0.0335	0.002016	0.008802	0.098644	-0.038986	-0.001455	0.00045	0.006438	0.002431
0.034	-0.002245	0.01509	0.200166	-0.045366	-0.0013	-0.006913	0.003462	-0.000385
0.0345	-0.003455	0.02088	0.198731	-0.059165	-0.003316	-0.010268	0.000401	-0.003288
0.035	-0.000723	0.023594	0.098966	-0.083231	-0.005393	-0.008289	-0.000843	-0.0056
0.0355	0.002544	0.020155	-0.026968	-0.107948	-0.00557	-0.006192	-0.001554	-0.006266
0.036	0.00271	0.010292	-0.102025	-0.117894	-0.002907	-0.006852	-0.002945	-0.005036
0.0365	-0.000859	-0.002484	-0.088262	-0.107024	0.001818	-0.008546	-0.004268	-0.002849
0.037	-0.005492	-0.013361	0.000739	-0.080365	0.00433	-0.009629	-0.004157	-0.000808
0.0375	-0.006746	-0.021337	0.104294	-0.041692	0.00138	-0.009669	-0.00207	0.000665
0.038	-0.003408	-0.028277	0.156381	0.008116	-0.003938	-0.007153	0.001461	0.000538
0.0385	-0.000508	-0.033432	0.146565	0.061194	-0.006308	-0.002071	0.006013	-0.000216
0.039	-0.001913	-0.034671	0.12756	0.102413	-0.004073	0.001708	0.0101	0.001341
0.0395	-0.004278	-0.032668	0.151901	0.121173	-0.000312	0.001727	0.010767	0.003455
0.04	-0.004206	-0.030938	0.207698	0.121326	0.000752	-0.000928	0.007601	0.002984
0.0405	-0.003531	-0.031254	0.225624	0.113325	-0.001267	-0.004761	0.002992	0.00185
0.041	-0.004088	-0.030665	0.153613	0.100273	-0.00451	-0.007881	-0.000569	0.002571
0.0415	-0.004481	-0.02663	0.017794	0.081814	-0.006993	-0.008253	-0.001242	0.003379
0.042	-0.002707	-0.020478	-0.100182	0.063011	-0.006317	-0.006395	0.000877	0.001045
0.0425	0.001124	-0.012621	-0.141425	0.048583	-0.003138	-0.004257	0.00407	-0.003462
0.043	0.003697	-0.001358	-0.115433	0.036818	-0.001267	-0.002846	0.006239	-0.005891
0.0435	0.002037	0.013539	-0.071906	0.02445	-0.002727	-0.003187	0.00594	-0.005737
0.044	-0.001051	0.032244	-0.045302	0.010151	-0.00564	-0.005216	0.003805	-0.005958
0.0445	-0.001245	0.053986	-0.034509	-0.005117	-0.006894	-0.007154	0.000683	-0.005992
0.045	0.000149	0.069945	-0.023157	-0.019776	-0.005946	-0.00867	-0.003408	-0.00393
0.0455	-0.000126	0.066563	-0.006777	-0.035475	-0.004639	-0.010803	-0.006612	-0.002312
0.046	-0.002565	0.041915	0.003135	-0.053532	-0.003709	-0.013158	-0.006547	-0.002979
0.0465	-0.005781	0.012339	-0.002244	-0.071682	-0.002228	-0.013172	-0.004126	-0.003245
0.047	-0.006919	-0.003996	-0.016722	-0.08639	-0.000811	-0.009536	-0.002099	-0.001079
0.0475	-0.004083	-0.006308	-0.026826	-0.092436	-0.000784	-0.004898	-0.001325	0.002601
0.048	-0.000158	-0.007299	-0.025645	-0.086501	-0.00151	-0.001961	0.000321	0.005283
0.0485	0.000688	-0.013707	-0.017888	-0.073036	-0.002454	-0.000793	0.00544	0.00507
0.049	-0.000851	-0.019868	-0.011745	-0.058681	-0.003367	-0.000846	0.012528	0.003695
0.0495	-0.001602	-0.019405	-0.008942	-0.042734	-0.003252	-0.00195	0.01636	0.004798
0.05	-0.000543	-0.012636	-0.005998	-0.020917	-0.00252	-0.003589	0.013705	0.007521
0.0505	0.001206	-0.004507	-0.001615	0.004221	-0.002028	-0.004721	0.006466	0.006502
0.051	0.002153	-0.002763	0.00151	0.02432	-0.001008	-0.005141	-2.3e-05	0.001413
0.0515	0.002785	-0.010014	0.000736	0.033477	0.001039	-0.005026	-0.001496	-0.001667
0.052	0.004872	-0.016985	-0.003677	0.033481	0.002744	-0.003632	0.00239	-0.000138
0.0525	0.008705	-0.012828	-0.00801	0.032114	0.002644	-0.001495	0.008341	0.002837
0.053	0.01299	0.003583	-0.007511	0.034697	0.001475	-0.000984	0.011294	0.00377
0.0535	0.015421	0.024795	-0.002952	0.039456	0.001356	-0.002363	0.009049	0.001415
0.054	0.0139	0.038565	-0.001582	0.040583	0.003292	-0.003497	0.004872	-0.003202
0.0545	0.009017	0.034379	-0.007384	0.033733	0.00495	-0.0038	0.003486	-0.006682
0.055	0.00486	0.014791	-0.015546	0.0203	0.003018	-0.004166	0.005644	-0.006096
0.0555	0.00562	-0.004483	-0.02057	0.006861	-0.000585	-0.004453	0.00787	-0.003665
0.056	0.009584	-0.011429	-0.02337	-9.1e-05	-0.000986	-0.003949	0.007437	-0.003874
0.0565	0.010692	-0.009207	-0.027402	0.000925	0.002031	-0.003412	0.005001	-0.006817
0.057	0.007021	-0.007448	-0.033335	0.006755	0.004444	-0.004262	0.002997	-0.009113
0.0575	0.001868	-0.008923	-0.038017	0.013714	0.00388	-0.005425	0.003262	-0.00906
0.058	-0.00165	-0.010261	-0.037335	0.01932	0.002117	-0.004774	0.004841	-0.008348
0.0585	-0.002736	-0.009811	-0.031365	0.020557	0.002081	-0.002342	0.005564	-0.009152
0.059	-0.001867	-0.007761	-0.023816	0.01507	0.004036	0.00068	0.004824	-0.010694
0.0595	-0.000576	-0.001738	-0.016941	0.005865	0.006074	0.002259	0.002738	-0.010302
0.06	-0.000959	0.011995	-0.011077	-0.001069	0.007105	0.00086	0.000229	-0.007512
0.0605	-0.003358	0.029864	-0.005895	-0.00482	0.006638	-0.000831	-0.000455	-0.004648
0.061	-0.006157	0.03849	0.000291	-0.008429	0.004049	0.000791	0.001032	-0.002868
0.0615	-0.007571	0.029389	0.008693	-0.01219	0.000655	0.004253	0.001942	-0.001554
0.062	-0.005853	0.011267	0.017086	-0.013942	-0.001579	0.005837	0.000617	-0.001945
0.0625	-4.3e-05	0.000189	0.021581	-0.013002	-0.002653	0.00561	-0.001802	-0.00544
0.063	0.007075	0.000616	0.021094	-0.011118	-0.002724	0.005993	-0.003796	-0.0094
0.0635	0.009692	0.002935	0.017149	-0.009359	-0.001179	0.006834	-0.004258	-0.010178
0.064	0.005052	0.000359	0.01007	-0.007397	0.001731	0.007056	-0.003114	-0.008356
0.0645	-0.003197	-0.002343	-0.000739	-0.006388	0.004596	0.008245	-0.000894	-0.007203
0.065	-0.008837	-0.001032	-0.013324	-0.006619	0.006086	0.011507	0.003748	-0.007451
0.0655	-0.00926	2.5e-05	-0.024189	-0.006413	0.006143	0.014116	0.010997	-0.007062
0.066	-0.006479	-0.002528	-0.031696	-0.006802	0.005565	0.013026	0.0155	-0.005086
0.0665	-0.003237	-0.005704	-0.03564	-0.009755	0.00501	0.008969	0.012747	-0.002867
0.067	6.1e-05	-0.007071	-0.036544	-0.012745	0.004942	0.004727	0.006886	-0.002006
0.0675	0.004326	-0.008295	-0.037015	-0.012836	0.005246	0.002988	0.004223	-0.002402
0.068	0.008344	-0.011083	-0.03995	-0.011605	0.00572	0.005525	0.004069	-0.002736
0.0685	0.00969	-0.014293	-0.043664	-0.010854	0.006847	0.010071	0.001806	-0.002694
0.069	0.008463	-0.014785	-0.040771	-0.011785	0.008202	0.011561	-0.004662	-0.003128
0.0695	0.005751	-0.01108	-0.02513	-0.014957	0.008137	0.007801	-0.013844	-0.00296
0.07	0.001425	-0.005821	-0.00228	-0.015404	0.006311	0.001413	-0.022919	-0.000632
0.0705	-0.003361	-0.002238	0.010541	-0.008704	0.004494	-0.002351	-0.029781	0.000633
0.071	-0.006015	-0.001111	0.003137	0.002394	0.00435	-0.00092	-0.033066	-0.002627
0.0715	-0.005449	-0.002254	-0.011309	0.013688	0.00539	0.002764	-0.031784	-0.006663
0.0720000000000001	-0.003064	-0.004723	-0.011631	0.022841	0.005893	0.004576	-0.026064	-0.004704
0.0725000000000001	-0.002244	-0.006852	0.003074	0.02807	0.00585	0.003752	-0.017218	0.002914
0.0730000000000001	-0.005078	-0.008317	0.014673	0.02867	0.006725	0.001841	-0.005784	0.008435
0.0735000000000001	-0.009755	-0.010113	0.012018	0.026063	0.00818	-7.9e-05	0.009417	0.00846
0.0740000000000001	-0.013173	-0.011518	0.003517	0.022765	0.00846	-0.000955	0.027556	0.007359
0.0745000000000001	-0.01388	-0.009982	0.002283	0.020639	0.006885	-0.000312	0.041327	0.008522
0.0750000000000001	-0.012748	-0.005761	0.009228	0.020082	0.004427	0.000467	0.040206	0.010198
0.0755000000000001	-0.011474	-0.002167	0.016588	0.018816	0.00351	0.000856	0.019686	0.008714
0.0760000000000001	-0.010699	-0.000597	0.019956	0.014842	0.004796	0.001077	-0.015066	0.00395
0.0765000000000001	-0.010325	-0.000289	0.021244	0.009802	0.004525	8.6e-05	-0.052915	0.000411
0.0770000000000001	-0.009538	-0.000953	0.023508	0.005584	0.000335	-0.00184	-0.082577	0.001027
0.0775000000000001	-0.007278	-0.002219	0.026504	0.00207	-0.003712	-0.002624	-0.09956	0.003142
0.0780000000000001	-0.004477	-0.003378	0.027009	-0.000213	-0.003111	-0.002319	-0.107278	0.004109
0.0785000000000001	-0.003449	-0.003662	0.020668	8.5e-05	0.000484	-0.003091	-0.11136	0.005566
0.0790000000000001	-0.004672	-0.001565	0.004033	0.001315	0.002429	-0.00476	-0.120758	0.007985
0.0795000000000001	-0.006591	0.002404	-0.01863	0.000471	0.001487	-0.005574	-0.150812	0.00927
0.0800000000000001	-0.007839	0.004589	-0.03099	-0.001921	3e-06	-0.005537	-0.207254	0.00908
0.0805000000000001	-0.00797	0.003766	-0.019795	-0.003597	-0.000624	-0.004282	-0.263033	0.008154
0.0810000000000001	-0.00679	0.00184	0.005475	-0.003526	-0.001942	-0.001117	-0.271737	0.007345
0.0815000000000001	-0.004147	-0.000354	0.023584	-0.002684	-0.004971	0.001701	-0.217646	0.007538
0.0820000000000001	-0.00073	-0.001677	0.028823	-0.003218	-0.007726	0.001551	-0.132299	0.008033
0.0825000000000001	0.001792	-0.000775	0.031046	-0.005125	-0.008632	-0.000583	-0.045141	0.007989
0.0830000000000001	0.001879	0.000612	0.035011	-0.006603	-0.008866	-0.00157	0.056691	0.00839
0.0835000000000001	0.000154	5.3e-05	0.035744	-0.007865	-0.009281	0.000249	0.19562	0.009649
0.0840000000000001	0.000164	-0.001794	0.030365	-0.010594	-0.008591	0.003599	0.346446	0.009693
0.0845000000000001	0.003579	-0.002413	0.022758	-0.013703	-0.006332	0.006286	0.437335	0.008274
0.0850000000000001	0.006897	-0.000795	0.017864	-0.014358	-0.004311	0.007776	0.419571	0.008464
0.0855000000000001	0.00693	0.00193	0.017076	-0.012844	-0.003483	0.008246	0.322231	0.00987
0.0860000000000001	0.005435	0.004318	0.019047	-0.011272	-0.002553	0.007636	0.209204	0.008764
0.0865000000000001	0.005759	0.005222	0.022106	-0.010082	-0.001142	0.006689	0.102494	0.005572
0.0870000000000001	0.007093	0.003545	0.023121	-0.008817	-0.001231	0.005368	-0.004253	0.003904
0.0875000000000001	0.005977	-0.000225	0.019358	-0.007964	-0.003771	0.002511	-0.084604	0.004052
0.0880000000000001	0.003171	-0.002938	0.016766	-0.008877	-0.006716	-0.002027	-0.097364	0.002673
0.0885000000000001	0.001975	-0.00208	0.028446	-0.011053	-0.007554	-0.008228	-0.049651	-0.000723
0.0890000000000001	0.002015	0.000578	0.058955	-0.011643	-0.006361	-0.014752	0.011309	-0.002329
0.0895000000000001	0.001613	0.001841	0.091465	-0.009537	-0.005543	-0.018141	0.051793	-0.001235
0.0900000000000001	0.001754	0.002252	0.095842	-0.007825	-0.006437	-0.017831	0.060176	-0.000454
0.0905000000000001	0.003718	0.003801	0.058779	-0.012471	-0.007978	-0.016317	0.032754	-0.000698
0.0910000000000001	0.00632	0.005103	0.002151	-0.029036	-0.008653	-0.014949	-0.010411	0.000109
0.0915000000000001	0.006976	0.004697	-0.037863	-0.056647	-0.007907	-0.013162	-0.01931	0.002324
0.0920000000000001	0.004766	0.004367	-0.045176	-0.083505	-0.006475	-0.00934	0.037693	0.004109
0.0925000000000001	0.002196	0.005293	-0.031079	-0.095081	-0.005096	-0.004144	0.124806	0.004099
0.0930000000000001	0.002539	0.00588	-0.013701	-0.088689	-0.00352	-0.000773	0.168337	0.002081
0.0935000000000001	0.005537	0.004185	-0.00274	-0.071825	-0.002791	-0.000798	0.139844	-0.00049
0.0940000000000001	0.008154	0.001198	-0.002595	-0.048927	-0.003976	-0.003595	0.084785	-0.001678
0.0945000000000001	0.009092	0.000564	-0.014828	-0.020329	-0.00492	-0.006563	0.059738	-0.00263
0.0950000000000001	0.009509	0.002531	-0.033902	0.010845	-0.004016	-0.006113	0.064609	-0.005191
0.0955000000000001	0.010201	0.003089	-0.048701	0.039157	-0.002053	-0.002026	0.055072	-0.007409
0.0960000000000001	0.011121	0.001963	-0.050993	0.060631	0.000822	0.001727	0.005725	-0.007804
0.0965000000000001	0.011959	0.003125	-0.040839	0.07363	0.004211	0.002215	-0.066347	-0.009321
0.0970000000000001	0.011543	0.006371	-0.025378	0.078428	0.006006	0.000294	-0.128295	-0.013579
0.0975000000000001	0.009179	0.007593	-0.013853	0.076776	0.004566	-0.002526	-0.155215	-0.017802
0.0980000000000001	0.006115	0.006829	-0.01121	0.071284	0.001286	-0.004701	-0.143339	-0.019353
0.0985000000000001	0.003163	0.007257	-0.016175	0.065987	-0.001508	-0.004401	-0.11671	-0.016751
0.0990000000000001	-0.000117	0.008975	-0.025511	0.064627	-0.002951	-0.002459	-0.110606	-0.010428
0.0995000000000001	-0.003047	0.009124	-0.036368	0.065104	-0.002187	-0.000936	-0.143033	-0.005064
0.1	-0.005176	0.005356	-0.04551	0.060382	-0.000468	0.000223	-0.193663	-0.003305
0.1005	-0.007233	-0.000484	-0.050569	0.045937	-0.000501	0.001842	-0.204035	-0.002408
0.101	-0.008077	-0.004396	-0.051832	0.023237	-0.001478	0.004166	-0.12	-0.001362
0.1015	-0.006143	-0.006178	-0.050867	-0.000543	-0.00196	0.007212	0.049377	-0.001199
0.102	-0.003083	-0.00754	-0.047655	-0.015856	-0.002425	0.009691	0.226171	-0.000133
0.1025	-0.000542	-0.008443	-0.041024	-0.019202	-0.002189	0.010334	0.315238	0.002436
0.103	0.002008	-0.008616	-0.031666	-0.015551	-0.000851	0.010763	0.255948	0.00313
0.1035	0.00326	-0.008678	-0.02238	-0.009774	-0.000913	0.011825	0.06027	0.001311
0.104	0.002071	-0.008526	-0.015599	-0.003584	-0.003931	0.01134	-0.175445	7.9e-05
0.1045	0.001103	-0.006715	-0.011328	0.000155	-0.007012	0.009438	-0.331595	0.000984
0.105	0.00157	-0.003677	-0.00747	0.0001	-0.006388	0.008433	-0.359756	0.003953
0.1055	0.001417	-0.001971	-0.00255	-0.000796	-0.002215	0.007757	-0.30719	0.006935
0.106	0.000289	-0.001648	0.002197	-0.001239	0.001301	0.005734	-0.248981	0.006547
0.1065	-8.9e-05	-0.000815	0.003982	-0.002674	0.000763	0.00241	-0.201471	0.003808
0.107	0.000844	0.000364	0.002358	-0.003521	-0.002177	-0.001424	-0.119135	0.003504
0.1075	0.00179	0.000712	0.000471	-0.00208	-0.003453	-0.003548	0.019279	0.005974
0.108	0.001199	0.000423	0.001316	-0.000537	-0.001619	-0.002225	0.166067	0.006429
0.1085	-0.000727	0.000444	0.00491	0.000115	0.000733	-0.00014	0.265688	0.003907
0.109	-0.001979	0.001372	0.009752	0.000145	0.000704	-0.000317	0.307825	0.002192
0.1095	-0.001701	0.002541	0.014813	-0.000887	-0.000379	-0.001371	0.292565	0.00257
0.11	-0.001094	0.002263	0.018837	-0.001563	0.000265	-0.001043	0.204277	0.004171
0.1105	-0.000852	0.000404	0.020381	-0.001572	0.002041	0.000327	0.067718	0.00618
0.111	-0.000189	-0.001314	0.019608	-0.00242	0.002813	0.001318	-0.022966	0.006633
0.1115	0.001048	-0.001459	0.018238	-0.003526	0.002425	0.001353	0.001454	0.004946
0.112	0.000972	0.000465	0.017827	-0.003602	0.001792	0.000122	0.088742	0.003732
0.1125	-0.001112	0.00318	0.018671	-0.002369	0.000913	-0.002293	0.123564	0.004682
0.113	-0.002428	0.003845	0.020017	0.000394	-1e-06	-0.004175	0.065371	0.005181
0.1135	-0.001732	0.001713	0.020322	0.005218	0.000286	-0.004594	-0.023787	0.002549
0.114	-0.001661	-0.001014	0.019188	0.010794	0.001316	-0.004594	-0.076177	-0.001201
0.1145	-0.003569	-0.002643	0.018925	0.013582	0.001059	-0.004355	-0.091642	-0.002902
0.115	-0.005511	-0.00304	0.020318	0.012065	-0.000329	-0.003145	-0.109544	-0.002716
0.1155	-0.005651	-0.00274	0.020492	0.008153	-0.000844	-0.001194	-0.152169	-0.003421
0.116	-0.004749	-0.002695	0.017854	0.005461	0.000334	-0.000202	-0.214894	-0.007048
0.1165	-0.004629	-0.003106	0.01456	0.005497	0.00221	-0.000945	-0.270665	-0.012316
0.117	-0.005186	-0.00295	0.013561	0.005176	0.003651	-0.001231	-0.256439	-0.01574
0.1175	-0.004914	-0.001634	0.015317	0.00276	0.004292	-0.000235	-0.111636	-0.014557
0.118	-0.003634	8.8e-05	0.017198	0.00033	0.003975	0.000322	0.118231	-0.00939
0.1185	-0.002926	0.00139	0.016318	-0.001117	0.002783	0.000788	0.2802	-0.004156
0.119	-0.003861	0.001727	0.013007	-0.001979	0.000913	0.001952	0.291534	-0.001283
0.1195	-0.005499	0.0007	0.010176	-0.002715	-0.000561	0.002888	0.251962	0.000242
0.12	-0.00629	-0.00046	0.009486	-0.004875	1.2e-05	0.004151	0.285145	0.000479
0.1205	-0.005568	-0.000164	0.009492	-0.009055	0.002165	0.007094	0.344148	-0.001547
0.121	-0.003705	0.000515	0.00838	-0.012164	0.004284	0.010939	0.296798	-0.00278
0.1215	-0.001941	0.000129	0.006285	-0.011393	0.006389	0.013827	0.143457	-0.000245
0.122	-0.001037	-0.000282	0.003505	-0.00843	0.008813	0.014571	0.015227	0.002665
0.1225	-0.000495	0.000174	0.000176	-0.006379	0.010254	0.013128	-0.018447	0.002713
0.123	0.000511	0.00111	-0.002403	-0.007784	0.010119	0.010589	-0.021134	0.001313
0.1235	0.002012	0.002249	-0.002953	-0.013166	0.009707	0.007961	-0.06456	0.000306
0.124	0.00279	0.002728	-0.002047	-0.017975	0.009113	0.004938	-0.126699	0.001024
0.1245	0.002119	0.002013	-0.00128	-0.01811	0.008209	0.001033	-0.142641	0.003321
0.125	0.001236	0.001028	-0.000964	-0.015421	0.00843	-0.002723	-0.098232	0.004258
0.1255	0.001527	2.8e-05	-0.000707	-0.012515	0.00908	-0.004654	-0.039372	0.003785
0.126	0.002076	-0.000875	-0.000672	-0.008591	0.007678	-0.004052	-0.014006	0.009307
0.1265	0.000873	0.000393	-0.000516	-0.003705	0.005047	-0.001775	-0.028673	0.027852
0.127	-0.001708	0.003825	-3.8e-05	-0.000665	0.004025	-0.000556	-0.055001	0.054003
0.1275	-0.003577	0.005324	-0.000906	-0.000465	0.004429	-0.002296	-0.064672	0.071085
0.128	-0.003683	0.003621	-0.003485	-0.002205	0.003913	-0.004782	-0.054505	0.066008
0.1285	-0.002121	0.001194	-0.004549	-0.004569	0.00181	-0.005631	-0.041263	0.042554
0.129	-0.000373	-0.00135	-0.002735	-0.004996	-0.000445	-0.005876	-0.038091	0.016621
0.1295	-0.000364	-0.003374	-0.000928	-0.004201	-0.001099	-0.006096	-0.041362	-0.002751
0.13	-0.00172	-0.00307	-0.000571	-0.007862	0.000132	-0.005162	-0.041659	-0.017819
0.1305	-0.002633	-0.001734	0.000441	-0.018858	0.001288	-0.003173	-0.039352	-0.02947
0.131	-0.00265	-0.001503	0.002399	-0.032318	0.000164	-0.001955	-0.040675	-0.034949
0.1315	-0.002525	-0.001227	0.002047	-0.041374	-0.002314	-0.002657	-0.046093	-0.036011
0.132	-0.002926	0.000102	-0.001742	-0.043933	-0.003161	-0.004046	-0.051646	-0.036599
0.1325	-0.003746	0.001248	-0.00554	-0.041187	-0.002326	-0.004939	-0.056267	-0.035876
0.133	-0.003603	0.001974	-0.005225	-0.034908	-0.00151	-0.005326	-0.062731	-0.032461
0.1335	-0.001973	0.002826	-0.001021	-0.025897	-0.000498	-0.004434	-0.072252	-0.028376
0.134	-0.00073	0.003138	0.001494	-0.012905	-0.000399	-0.002253	-0.080686	-0.025605
0.1345	-0.000308	0.00241	-0.001806	0.003555	-0.003436	-0.000674	-0.082566	-0.025329
0.135	0.001304	0.000836	-0.008156	0.020117	-0.007068	-0.000624	-0.077642	-0.026713
0.1355	0.003901	-0.001346	-0.012228	0.033777	-0.007166	-0.001245	-0.072021	-0.02565
0.136	0.005122	-0.003217	-0.011988	0.04175	-0.00481	-0.001515	-0.072267	-0.020064
0.1365	0.004843	-0.003164	-0.009172	0.042837	-0.002806	-0.001288	-0.078382	-0.01308
0.137	0.00424	-0.000854	-0.006498	0.039735	-0.001452	-0.001194	-0.082282	-0.008368
0.1375	0.002877	0.001768	-0.004766	0.035895	-0.001247	-0.001038	-0.070865	-0.006467
0.138	0.001048	0.003306	-0.003288	0.032571	-0.002816	-0.000231	-0.032879	-0.006033
0.1385	0.000594	0.003904	-0.001948	0.029076	-0.005063	-2.8e-05	0.033398	-0.005631
0.139	0.001726	0.0032	-0.000723	0.024487	-0.006689	-0.001357	0.113682	-0.0047
0.1395	0.002904	0.000886	0.000891	0.019627	-0.006627	-0.002437	0.173188	-0.003462
0.14	0.002954	-0.002775	0.002421	0.015234	-0.004385	-0.002186	0.171845	-0.001516
0.1405	0.002354	-0.006555	0.002633	0.009842	-0.001114	-0.002137	0.099869	0.00172
0.141	0.002605	-0.008019	0.002491	0.002136	0.00072	-0.003405	-0.00645	0.005261
0.1415	0.003163	-0.006511	0.003585	-0.00616	-0.000782	-0.004795	-0.093933	0.007754
0.142	0.001294	-0.004232	0.003622	-0.011198	-0.003941	-0.003947	-0.135879	0.00958
0.1425	-0.003617	-0.003982	-0.000408	-0.011183	-0.005078	-0.000409	-0.140203	0.012093
0.143	-0.008115	-0.00644	-0.006565	-0.008031	-0.003558	0.003304	-0.125772	0.014615
0.1435	-0.007759	-0.007923	-0.01038	-0.004974	-0.002105	0.004753	-0.107042	0.014373
0.144	-0.002186	-0.003661	-0.010201	-0.003529	-0.002594	0.003536	-0.089585	0.011304
0.1445	0.004098	0.004613	-0.007161	-0.001296	-0.003686	0.000592	-0.060055	0.009061
0.145	0.006797	0.009462	-0.003401	0.004163	-0.003159	-0.002374	0.012161	0.009498
0.1455	0.005711	0.007338	-0.00193	0.00908	-0.000994	-0.003376	0.136547	0.010254
0.146	0.003333	0.001406	-0.004242	0.009244	0.000418	-0.001723	0.258621	0.009846
0.1465	0.001758	-0.003645	-0.007925	0.007221	-0.000757	0.001232	0.289424	0.009484
0.147	0.00152	-0.005193	-0.008724	0.006119	-0.003702	0.003924	0.206644	0.008514
0.1475	0.001872	-0.003779	-0.004205	0.00573	-0.006597	0.005631	0.102273	0.006439
0.148	0.00222	-0.000812	0.004096	0.005879	-0.007545	0.006009	0.084939	0.00553
0.1485	0.002547	0.003401	0.012493	0.005534	-0.00522	0.005618	0.146945	0.006017
0.149	0.001996	0.006967	0.019858	0.003408	-0.001013	0.005821	0.18635	0.005549
0.1495	-1e-06	0.006481	0.025586	0.000948	0.001662	0.006654	0.155237	0.003568
0.15	-0.002485	0.001182	0.025509	-0.002075	0.001263	0.006292	0.110914	0.00196
0.1505	-0.004473	-0.005371	0.018032	-0.01151	-0.000232	0.003806	0.10577	0.002228
0.151	-0.005628	-0.00881	0.008533	-0.030117	-0.00133	0.000499	0.105767	0.004452
0.1515	-0.005254	-0.007775	0.002699	-0.049919	-0.002897	-0.001711	0.061038	0.006882
0.152	-0.002549	-0.003432	0.000833	-0.060584	-0.00418	-0.002128	-0.004586	0.005837
0.1525	0.000671	0.001354	-0.000591	-0.059557	-0.003788	-0.001964	-0.033177	0.001424
0.153	0.001106	0.004543	-0.005906	-0.051231	-0.002671	-0.001895	-0.028345	-0.001136
0.1535	-0.000932	0.007059	-0.016464	-0.041973	-0.000915	-0.000774	-0.051762	0.000552
0.154	-0.002178	0.008898	-0.027165	-0.035612	0.002005	0.001102	-0.128755	0.003529
0.1545	-0.000966	0.00871	-0.031664	-0.031141	0.00397	0.001363	-0.199763	0.003975
0.155	0.001658	0.007727	-0.030407	-0.025441	0.003934	-0.000526	-0.180869	0.001702
0.1555	0.003604	0.007566	-0.028559	-0.01608	0.004613	-0.001961	-0.064798	-4.9e-05
0.156	0.003711	0.006918	-0.028405	-0.001072	0.007139	-0.001239	0.056263	0.000526
0.1565	0.002737	0.00463	-0.027565	0.017366	0.008471	0.000434	0.088093	0.001908
0.157	0.001901	0.002269	-0.024279	0.032452	0.006268	0.00176	0.039049	0.001771
0.1575	0.00115	0.001204	-0.020211	0.041893	0.002814	0.003015	-0.006374	-0.000341
0.158	0.000193	0.000744	-0.016545	0.048481	0.002332	0.004763	-0.003341	-0.002933
0.1585	-0.000905	-0.000993	-0.012567	0.05447	0.004128	0.005335	0.014326	-0.003875
0.159	-0.002253	-0.004853	-0.008201	0.061014	0.003728	0.003026	0.007952	-0.002466
0.1595	-0.003184	-0.008459	-0.003601	0.065704	0.001717	6.9e-05	-0.011163	-0.00112
0.16	-0.002581	-0.009905	0.001785	0.061992	0.001894	-0.001172	-0.020734	-0.0022
0.1605	-0.000767	-0.009983	0.00767	0.046227	0.00368	-0.00192	-0.038423	-0.004893
0.161	0.001198	-0.008682	0.012162	0.023096	0.004813	-0.003203	-0.094035	-0.007557
0.1615	0.002633	-0.006648	0.014323	0.002544	0.005297	-0.002925	-0.165959	-0.00951
0.162	0.002956	-0.00688	0.015502	-0.006823	0.0047	-0.000234	-0.190064	-0.009808
0.1625	0.003347	-0.009492	0.016369	-0.003779	0.00273	0.001277	-0.139361	-0.008602
0.163	0.00555	-0.010202	0.016969	0.003604	0.00216	-0.000483	-0.058872	-0.007923
0.1635	0.00729	-0.006636	0.018241	0.007254	0.004221	-0.002802	-0.007719	-0.007417
0.164	0.00552	1.5e-05	0.018923	0.006967	0.006349	-0.00354	0.002765	-0.005737
0.1645	0.001687	0.008399	0.016382	0.005358	0.007605	-0.00335	-0.000968	-0.005105
0.165	-0.001898	0.015297	0.012091	0.003869	0.009119	-0.002658	0.000871	-0.006529
0.1655	-0.004092	0.016443	0.009543	0.003909	0.010506	-0.001102	0.00665	-0.00733
0.166	-0.003039	0.012227	0.008881	0.005081	0.009917	0.000481	0.010219	-0.006402
0.1665	0.000185	0.007048	0.008809	0.00542	0.00727	0.000559	0.012666	-0.004801
0.167	0.001636	0.004512	0.009201	0.005623	0.005491	-0.001429	0.016062	-0.003025
0.1675	0.001345	0.004579	0.008477	0.006654	0.006376	-0.004405	0.017136	-0.00165
0.168	0.001996	0.003855	0.004587	0.00597	0.007758	-0.005789	0.010331	-0.0014
0.1685	0.003206	0.000373	0.000657	0.003088	0.006586	-0.00431	-0.006542	-0.00118
0.169	0.003343	-0.002436	0.00142	0.000791	0.003095	-0.00185	-0.029647	-3e-05
0.1695	0.002296	-0.0005	0.004957	-0.001017	-6.9e-05	-0.001053	-0.049423	0.000925
0.17	0.000382	0.004038	0.006508	-0.003976	-0.001557	-0.002244	-0.054296	0.001079
0.1705	-0.001293	0.005601	0.006156	-0.007255	-0.001923	-0.00386	-0.039867	0.000356
0.171	-0.00092	0.00205	0.006642	-0.009481	-0.002568	-0.004865	-0.016042	-0.001392
0.1715	0.001038	-0.003683	0.008387	-0.0112	-0.003784	-0.004692	-0.004301	-0.002094
0.172	0.001847	-0.006514	0.010648	-0.013803	-0.004374	-0.003382	-0.026807	0.00057
0.1725	0.000157	-0.004209	0.01435	-0.017757	-0.004449	-0.002153	-0.08635	0.004625
0.173	-0.002636	-0.000185	0.021522	-0.022327	-0.005036	-0.001461	-0.146246	0.00597
0.1735	-0.004133	0.000543	0.032433	-0.024883	-0.005634	-0.000926	-0.139081	0.004277
0.174	-0.003182	-0.001931	0.042877	-0.022656	-0.004787	-0.000917	-0.020138	0.001858
0.1745	-0.00071	-0.003448	0.04724	-0.016925	-0.002685	-0.001284	0.170031	-0.000145
0.175	0.001151	-0.00386	0.045499	-0.011586	-0.001451	-0.000969	0.310256	-0.000802
0.1755	0.000545	-0.007191	0.042003	-0.00954	-0.001971	-0.000179	0.302198	-0.000128
0.176	-0.001835	-0.012961	0.038145	-0.011379	-0.003488	-1e-06	0.175197	5.2e-05
0.1765	-0.002858	-0.014616	0.032288	-0.014149	-0.004963	-0.000349	0.055115	-0.000828
0.177	-0.001427	-0.008268	0.025021	-0.014237	-0.005288	-0.000374	0.024018	-0.00149
0.1775	0.000428	0.001298	0.018476	-0.011293	-0.005047	-0.000244	0.047733	-0.000427
0.178	0.001316	0.006449	0.011984	-0.00768	-0.005644	-0.000706	0.04961	0.002441
0.1785	0.001133	0.00564	0.002615	-0.006114	-0.006476	-0.001622	0.009685	0.004572
0.179	-0.000178	0.003134	-0.01132	-0.006322	-0.006094	-0.00264	-0.036324	0.00427
0.1795	-0.001586	0.002508	-0.028251	-0.00556	-0.004687	-0.00343	-0.059198	0.003889
0.18	-0.001683	0.003692	-0.044378	-0.003553	-0.003688	-0.003112	-0.056255	0.005881
0.1805	-0.000815	0.005441	-0.057641	-0.001919	-0.003635	-0.001654	-0.028553	0.008397
0.181	-0.000454	0.00653	-0.068639	-0.000677	-0.004236	-0.000416	0.0177	0.008332
0.1815	-0.000707	0.005671	-0.077251	-0.000335	-0.004995	-4.3e-05	0.053752	0.005572
0.182	-0.00038	0.003363	-0.081486	-0.00168	-0.00512	0.000755	0.050486	0.002706
0.1825	5.5e-05	0.00109	-0.079307	-0.002611	-0.004691	0.003009	0.016381	0.002607
0.183	-0.000496	-0.00091	-0.07086	-0.002176	-0.003929	0.005824	-0.011666	0.004233
0.1835	-0.001116	-0.002986	-0.059098	-0.001664	-0.00307	0.008293	-0.015067	0.004666
0.184	-0.001259	-0.004567	-0.047139	-8.4e-05	-0.003821	0.009734	-0.012235	0.004928
0.1845	-0.001816	-0.004557	-0.03578	0.003044	-0.006031	0.008945	-0.027057	0.005703
0.185	-0.002715	-0.002509	-0.02485	0.005782	-0.006619	0.006716	-0.05808	0.004768
0.1855	-0.002515	0.001162	-0.015426	0.007096	-0.005355	0.005166	-0.083772	0.002488
0.186	-0.000711	0.004281	-0.008902	0.006764	-0.004766	0.0039	-0.082452	0.001502
0.1865	0.000772	0.004741	-0.005184	0.004711	-0.004478	0.00209	-0.050091	0.001874
0.187	0.000165	0.003615	-0.003163	0.002297	-0.003104	0.001505	-0.009537	0.001873
0.1875	-0.00162	0.002226	-0.001687	0.001635	-0.001858	0.002347	0.004592	0.001709
0.188	-0.002583	-0.000242	0.000314	0.002023	-0.000705	0.002001	-0.021977	0.001639
0.1885	-0.002226	-0.00374	0.003291	0.001161	0.001417	0.000278	-0.068037	0.000407
0.189	-0.001175	-0.005832	0.007194	0.000301	0.002728	-0.001023	-0.098657	-0.001715
0.1895	0.000711	-0.004467	0.012106	0.001354	0.001671	-0.001644	-0.095768	-0.003405
0.19	0.002571	-0.000884	0.016913	0.003094	-0.00143	-0.001525	-0.058267	-0.003514
0.1905	0.002125	0.002067	0.019472	0.004037	-0.004915	4.2e-05	0.011767	-0.000802
0.191	0.000168	0.003047	0.019766	0.00382	-0.00576	0.002398	0.100226	0.003401
0.1915	0.000326	0.002749	0.019724	0.003018	-0.003094	0.003586	0.164507	0.005604
0.192	0.002966	0.002757	0.020064	0.003655	0.001135	0.002653	0.157082	0.005305
0.1925	0.004644	0.00266	0.020151	0.006547	0.004094	0.000913	0.080522	0.004447
0.193	0.003971	0.000973	0.020061	0.008724	0.003569	0.001083	-0.005002	0.003182
0.1935	0.002377	-0.000682	0.019693	0.00777	0.000937	0.002998	-0.043093	0.001365
0.194	0.000988	-0.000504	0.017291	0.005565	-0.00019	0.002135	-0.0329	-0.0001
0.1945	0.000889	-0.000155	0.013041	0.004036	0.000837	-0.002725	-0.014251	-0.000706
0.195	0.002206	-0.000755	0.01039	0.002484	0.001828	-0.007033	-0.01669	0.000112
0.1955	0.00287	-0.001215	0.010239	0.000453	0.001059	-0.008365	-0.035182	0.001888
0.196	0.001614	-0.001616	0.009801	-0.001064	-0.001835	-0.008095	-0.051042	0.002346
0.1965	-0.000453	-0.002146	0.00795	-0.001065	-0.004038	-0.007324	-0.058939	2.9e-05
0.197	-0.002162	-0.001685	0.006398	0.000227	-0.001938	-0.006171	-0.064254	-0.003341
0.1975	-0.003572	-0.0011	0.007163	-0.000327	0.00205	-0.004316	-0.063871	-0.004625
0.198	-0.00509	-0.001927	0.010219	-0.006959	0.003555	-0.001653	-0.039278	-0.003924
0.1985	-0.0063	-0.002766	0.012955	-0.016997	0.003064	0.001223	0.027343	-0.002645
0.199	-0.005822	-0.001509	0.013654	-0.021237	0.002033	0.003376	0.122867	-6.5e-05
0.1995	-0.00336	0.001184	0.012872	-0.01652	0.000695	0.004055	0.193416	0.002355
0.2	-0.000524	0.002711	0.011234	-0.008568	-0.000321	0.003028	0.185524	0.001675
0.2005	0.001038	0.002393	0.010037	-0.002223	-0.001161	0.000232	0.104209	-0.00016
0.201	0.000743	0.001517	0.010162	0.00238	-0.001959	-0.003736	0.011979	0.000539
0.2015	-6.4e-05	7.5e-05	0.009397	0.006146	-0.002386	-0.006604	-0.037914	0.002686
0.202	0.000823	-0.00229	0.006729	0.009298	-0.002526	-0.006418	-0.049174	0.002506
0.2025	0.002952	-0.003713	0.005138	0.012165	-0.001391	-0.004631	-0.058041	-0.000727
0.203	0.004039	-0.002319	0.005979	0.014661	0.001406	-0.004137	-0.086822	-0.003542
0.2035	0.003688	0.000591	0.007058	0.015999	0.003124	-0.004818	-0.137814	-0.002977
0.204	0.003166	0.002675	0.006986	0.016938	0.001811	-0.004327	-0.211308	-0.000596
0.2045	0.002423	0.003266	0.005973	0.018807	-0.000843	-0.002154	-0.298382	0.000236
0.205	-8.6e-05	0.001992	0.004311	0.019466	-0.002597	-0.000184	-0.355291	-0.001287
0.2055	-0.003662	-0.001041	0.002456	0.016264	-0.002513	0.000854	-0.315806	-0.003859
0.206	-0.005023	-0.003772	0.000521	0.011953	-0.00113	0.002113	-0.148363	-0.005352
0.2065	-0.002929	-0.004474	-0.001283	0.010623	-0.000335	0.003742	0.110414	-0.004475
0.207	0.000397	-0.00386	-0.001997	0.010382	-0.000447	0.005938	0.380492	-0.003852
0.2075	0.001935	-0.003523	-0.001167	0.007267	-0.000672	0.009691	0.574973	-0.005558
0.208	0.000589	-0.003539	0.000405	0.001967	-0.001536	0.013077	0.618654	-0.006721
0.2085	-0.001706	-0.002627	0.00122	-0.002009	-0.002587	0.012757	0.481498	-0.005928
0.209	-0.002898	-0.000837	0.000817	-0.002903	-0.002378	0.009765	0.226296	-0.005135
0.2095	-0.003389	0.000103	-1.5e-05	-0.002218	-0.000967	0.007763	-0.008652	-0.004376
0.21	-0.003503	-2.7e-05	-0.001053	-0.002044	0.001047	0.007002	-0.118563	-0.002865
0.2105	-0.002383	0.000952	-0.002268	-0.002855	0.003152	0.005527	-0.115863	-0.001548
0.211	-0.000382	0.003131	-0.003027	-0.004324	0.003749	0.002879	-0.085266	-0.00091
0.2115	0.000836	0.003905	-0.003273	-0.005575	0.001901	-0.000284	-0.081052	-0.000488
0.212	0.000519	0.003785	-0.00402	-0.006028	0.000123	-0.002479	-0.095191	-0.000364
0.2125	-0.000382	0.004492	-0.005718	-0.005762	0.000919	-0.00324	-0.101122	-0.000492
0.213	-0.000754	0.00416	-0.007144	-0.005373	0.002264	-0.00369	-0.089455	-0.000436
0.2135	-0.000583	0.001869	-0.007632	-0.006499	0.001459	-0.00301	-0.065311	-0.001241
0.214	-0.000326	2.4e-05	-0.008407	-0.009261	-0.000127	-0.000137	-0.039896	-0.004812
0.2145	-0.000519	-0.000445	-0.009893	-0.010836	-0.000149	0.002764	-0.029145	-0.009024
0.215	-0.001269	-0.000644	-0.010699	-0.009777	0.001365	0.003043	-0.04216	-0.008639
0.2155	-0.001463	-0.00068	-0.00982	-0.007887	0.003176	0.000805	-0.065221	-0.004196
0.216	-0.000847	-0.000861	-0.007517	-0.005853	0.003503	-0.001528	-0.071003	-0.000843
0.2165	-0.000363	-0.001695	-0.005008	-0.003672	0.002381	-0.001665	-0.044184	0.00011
0.217	0.000418	-0.002042	-0.003476	-0.003755	0.002279	0.000211	0.009643	0.00012
0.2175	0.001691	-0.002046	-0.002426	-0.005392	0.003007	0.001779	0.068068	0.000485
0.218	0.002145	-0.003325	-0.000954	-0.004086	0.00324	0.001538	0.096405	0.001807
0.2185	0.001596	-0.004842	2.2e-05	-6.1e-05	0.004071	0.000463	0.06579	0.002936
0.219	0.001626	-0.004147	-0.000619	0.002254	0.005071	0.00032	-0.015357	0.003382
0.2195	0.002953	-0.001435	-0.002137	0.001517	0.004535	0.00116	-0.097703	0.004204
0.22	0.003919	0.001068	-0.003246	-7e-06	0.003296	0.001141	-0.13745	0.00496
0.2205	0.003222	0.002125	-0.003744	-0.000464	0.003434	-0.000704	-0.138596	0.003691
0.221	0.00216	0.001396	-0.004515	0.000876	0.004843	-0.003128	-0.135406	0.000694
0.2215	0.002301	-0.000375	-0.006021	0.002968	0.005685	-0.004523	-0.145949	-0.000842
0.222	0.002971	-0.000483	-0.006776	0.002788	0.006041	-0.004372	-0.158983	0.000318
0.2225	0.002658	0.001874	-0.005727	0.000605	0.005923	-0.003313	-0.16074	0.001651
0.223	0.002359	0.004606	-0.004468	0.000163	0.004296	-0.001907	-0.154912	0.000942
0.2235	0.004298	0.007093	-0.003894	0.002547	0.003906	-0.000373	-0.141574	-0.001565
0.224	0.006923	0.009728	-0.001584	0.005102	0.007252	0.000804	-0.094424	-0.004236
0.2245	0.006102	0.011662	0.003892	0.005292	0.010716	0.002613	0.002029	-0.005362
0.225	0.001896	0.012487	0.008844	0.003454	0.010375	0.006553	0.103563	-0.004971
0.2255	-0.001176	0.012938	0.009945	0.000851	0.007465	0.0098	0.154953	-0.004446
0.226	-0.001666	0.012936	0.009475	-0.001893	0.005244	0.007372	0.181428	-0.003427
0.2265	-0.002033	0.011099	0.008841	-0.004344	0.004848	0.000941	0.250595	-0.001453
0.227	-0.002577	0.006963	0.004844	-0.006828	0.005107	-0.002148	0.342759	-0.000754
0.2275	-0.002469	0.001578	-0.003364	-0.008843	0.004494	0.000358	0.352276	-0.001639
0.228	-0.002518	-0.004219	-0.011576	-0.008353	0.003378	0.003447	0.235862	-0.001311
0.2285	-0.002772	-0.009215	-0.015091	-0.00443	0.002819	0.003098	0.078802	0.000576
0.229	-0.001939	-0.011287	-0.012821	0.000615	0.001206	0.00044	-0.013612	0.002562
0.2295	0.000187	-0.010805	-0.007988	0.002786	-0.002186	-0.003033	-0.027839	0.004676
0.23	0.001856	-0.011742	-0.004518	0.002361	-0.003353	-0.008085	-0.015748	0.006701
0.2305	0.002342	-0.015802	-0.003435	0.003042	-2.9e-05	-0.012691	-0.009793	0.007042
0.231	0.002436	-0.019504	-0.002735	0.004248	0.003558	-0.012099	-0.006198	0.005125
0.2315	0.001022	-0.01946	-0.000448	0.002174	0.002783	-0.00725	-0.000402	0.002685
0.232	-0.002608	-0.014616	0.002919	-0.005033	-0.001314	-0.004321	0.001814	0.001096
0.2325	-0.005742	-0.005225	0.006254	-0.015945	-0.00444	-0.004702	-0.001362	0.000173
0.233	-0.006027	0.004737	0.009141	-0.026429	-0.004577	-0.004782	-0.004372	0.000401
0.2335	-0.004131	0.008722	0.011166	-0.033751	-0.003578	-0.003613	-0.003327	0.002187
0.234	-0.002077	0.004266	0.011741	-0.038807	-0.003362	-0.002477	-0.000917	0.004252
0.2345	-0.001131	-0.003645	0.009474	-0.04248	-0.002687	-0.001369	-0.0033	0.005307
0.235	-0.00099	-0.007931	0.004074	-0.043323	-0.00076	-0.00032	-0.014332	0.005275
0.2355	-0.000656	-0.00682	-0.000864	-0.03999	0.000768	0.000158	-0.031	0.004509
0.236	-0.000378	-0.002896	-0.001028	-0.032601	0.000689	-0.000226	-0.044598	0.003411
0.2365	-0.000982	0.001442	0.002955	-0.021107	-0.001526	-0.00168	-0.047908	0.002559
0.237	-0.001326	0.004898	0.006176	-0.005549	-0.00478	-0.003039	-0.040534	0.002415
0.2375	-1.8e-05	0.007029	0.005712	0.012888	-0.00597	-0.00278	-0.027954	0.003319
0.238	0.002191	0.007966	0.003555	0.031667	-0.004236	-0.001822	-0.01674	0.004711
0.2385	0.003455	0.007609	0.003168	0.047471	-0.001986	-0.001309	-0.009743	0.005572
0.239	0.002382	0.006424	0.005264	0.058204	-0.001075	-0.000793	-0.003284	0.006044
0.2395	-8.8e-05	0.005629	0.007833	0.063402	-0.001222	-0.000701	0.008598	0.006671
0.24	-0.001243	0.005036	0.009149	0.063518	-0.001963	-0.001542	0.023126	0.007236
0.2405	-0.000344	0.004331	0.008655	0.058933	-0.003249	-0.001805	0.026071	0.006224
0.241	0.000287	0.003679	0.005991	0.050837	-0.003585	-0.000476	0.003115	0.003299
0.2415	-0.000719	0.001912	0.001856	0.042301	-0.000371	0.000992	-0.042418	0.000724
0.242	-0.00101	-1.7e-05	-0.001119	0.033385	0.005373	0.001319	-0.07699	-0.001624
0.2425	0.000992	0.00107	-0.000736	0.02118	0.006265	0.001224	-0.05549	-0.004287
0.243	0.002589	0.003636	0.00127	0.007223	-0.002319	0.001358	0.023747	-0.003507
0.2435	0.001399	0.00295	0.000322	-0.003536	-0.011914	0.001464	0.087852	0.00095
0.244	-0.000909	-0.000665	-0.004406	-0.008587	-0.01162	0.001773	0.044976	0.002962
0.2445	-0.002417	-0.00295	-0.008089	-0.00833	-0.004421	0.002867	-0.110436	0.000338
0.245	-0.003508	-0.002367	-0.007747	-0.00521	-0.000318	0.004524	-0.262656	-0.002577
0.2455	-0.003929	-0.00078	-0.006303	-0.003336	-0.001827	0.00559	-0.274443	-0.0032
0.246	-0.003107	-0.00061	-0.007123	-0.004596	-0.005803	0.00487	-0.127702	-0.002655
0.2465	-0.002047	-0.002616	-0.009661	-0.005954	-0.009334	0.002448	0.055175	-0.001254
0.247	-0.001241	-0.004971	-0.011359	-0.005008	-0.009364	-1.5e-05	0.135734	6.8e-05
0.2475	-0.000246	-0.005606	-0.010969	-0.003907	-0.005124	-0.001503	0.08637	-0.000558
0.248	0.001226	-0.004135	-0.009759	-0.004802	-0.000144	-0.002391	-0.011678	-0.001955
0.2485	0.003279	-0.00128	-0.009106	-0.006977	0.00167	-0.001986	-0.067963	-0.002346
0.249	0.00492	0.001012	-0.007941	-0.008894	-0.000731	8.1e-05	-0.055183	-0.001883
0.2495	0.004659	0.000834	-0.004796	-0.0093	-0.005288	0.001365	-0.000882	-0.000647
0.25	0.00227	-0.001271	-0.000989	-0.007752	-0.008639	0.000302	0.05418	0.000486
0.2505	-0.000796	-0.002122	0.000379	-0.006217	-0.009064	-0.00156	0.085063	-0.000361
0.251	-0.00276	0.000938	-0.001254	-0.006186	-0.007463	-0.003069	0.092615	-0.002831
0.2515	-0.003101	0.006057	-0.003302	-0.00538	-0.005013	-0.003988	0.091936	-0.004625
0.252	-0.001815	0.008564	-0.004072	-0.003274	-0.001515	-0.003118	0.09249	-0.004712
0.2525	0.000578	0.00663	-0.004282	-0.003485	0.00231	-0.000403	0.089007	-0.003494
0.253	0.00248	0.002654	-0.004384	-0.006969	0.004791	0.001426	0.060544	-0.001741
0.2535	0.003204	-0.000338	-0.003012	-0.011405	0.005871	0.000298	-0.012515	-0.000982
0.254	0.002839	-0.001312	-9.2e-05	-0.016155	0.005681	-0.00192	-0.110726	-0.001887
0.2545	0.000527	-0.000779	0.001626	-0.021468	0.003792	-0.002432	-0.169226	-0.001523
0.255	-0.003119	0.000229	0.001473	-0.026592	0.001175	-0.001178	-0.138654	0.002413
0.2555	-0.004746	0.001119	0.003155	-0.031058	-0.000732	0.00121	-0.048	0.005643
0.256	-0.003026	0.001169	0.007957	-0.03471	-0.001442	0.003914	0.023584	0.003873
0.2565	-0.000676	-0.001325	0.010937	-0.037064	-0.000862	0.004462	0.036174	2.5e-05
0.257	0.000101	-0.006595	0.008747	-0.037666	0.0005	0.002452	0.018154	-0.002357
0.2575	-0.000236	-0.01119	0.005334	-0.035979	0.000895	0.001373	0.009314	-0.003744
0.258	-0.001078	-0.010552	0.005318	-0.031788	-0.000741	0.003174	0.013002	-0.004258
0.2585	-0.002215	-0.004589	0.007074	-0.025399	-0.002538	0.005267	0.011844	-0.002768
0.259	-0.002107	0.002127	0.00682	-0.01721	-0.002581	0.004641	0.000804	-0.000342
0.2595	-1e-06	0.007074	0.004954	-0.007935	-0.001362	0.002163	-0.009501	0.000114
0.26	0.001395	0.011243	0.004455	0.002972	0.000136	0.000417	-0.007708	-0.001645
0.2605	0.000319	0.014076	0.005943	0.01803	0.000596	-0.00049	0.008776	-0.002827
0.261	-0.001018	0.014136	0.006981	0.037147	-0.00065	-0.000935	0.031692	-0.002401
0.2615	-0.000821	0.01252	0.006405	0.054454	-0.001335	-2.2e-05	0.046791	-0.002009
0.262	-0.000314	0.009817	0.006015	0.063847	0.000686	0.001694	0.044729	-0.001983
0.2625	-0.001394	0.004782	0.005816	0.065612	0.003892	0.003024	0.028704	-0.001925
0.263	-0.003167	-0.002163	0.003314	0.062749	0.005003	0.003517	0.011488	-0.003841
0.2635	-0.003063	-0.009058	-0.001217	0.055216	0.002945	0.002126	0.002302	-0.00755
0.264	-0.001415	-0.013398	-0.004622	0.041405	-0.00012	-0.000868	-0.000932	-0.008834
0.2645	-5.5e-05	-0.012267	-0.004727	0.021116	-0.001888	-0.002744	-0.00276	-0.007425
0.265	0.000839	-0.007004	-0.00195	-0.000526	-0.002381	-0.001984	-0.002431	-0.006834
0.2655	0.001252	-0.003969	0.000343	-0.014722	-0.002262	0.00018	0.001296	-0.007176
0.266	0.001136	-0.004888	-0.000923	-0.019033	-0.000959	0.001557	0.00521	-0.006426
0.2665	0.001278	-0.004852	-0.003455	-0.017708	0.001555	0.001341	0.004601	-0.003865
0.267	0.002055	-0.002765	-0.002458	-0.014465	0.003647	0.001213	-7.8e-05	-3.6e-05
0.2675	0.002666	-0.002222	0.001872	-0.011398	0.004242	0.002154	-0.002999	0.003275
0.268	0.001751	-0.003127	0.004749	-0.009152	0.004099	0.002269	-0.000725	0.003656
0.2685	-0.000652	-0.002243	0.003578	-0.006221	0.004663	0.00013	0.003949	0.000212
0.269	-0.002315	0.000944	0.000933	-0.001659	0.005608	-0.002474	0.00615	-0.004154
0.2695	-0.002064	0.00453	0.001013	0.002763	0.004334	-0.002387	0.004946	-0.005099
0.27	-0.001368	0.007338	0.003941	0.005539	0.000185	0.000274	0.003656	-0.001821
0.2705	-0.00113	0.009565	0.004854	0.005958	-0.003334	0.002027	0.002942	0.002406
0.271	-0.000786	0.012333	0.00037	0.003655	-0.003089	0.001641	-0.001209	0.00393
0.2715	-0.000194	0.016239	-0.006455	0.001152	-0.000282	0.000879	-0.009556	0.002425
0.272	0.000688	0.019773	-0.010105	-0.001355	0.0017	0.000603	-0.016856	0.000306
0.2725	0.001856	0.020984	-0.009055	-0.010117	0.00152	8.6e-05	-0.019351	-0.000392
0.273	0.002711	0.019777	-0.006565	-0.028609	0.000275	-0.001328	-0.017594	0.000346
0.2735	0.003117	0.017316	-0.006279	-0.051466	-0.00134	-0.002605	-0.011894	0.000623
0.274	0.003501	0.013905	-0.007934	-0.071543	-0.003075	-0.001528	-0.000687	-0.000803
0.2745	0.003264	0.006703	-0.008696	-0.085335	-0.003689	0.001219	0.016815	-0.002161
0.275	0.001733	-0.009194	-0.007785	-0.091232	-0.002782	0.002067	0.036923	-0.001257
0.2755	0.000493	-0.033063	-0.006315	-0.089689	-0.00131	0.000657	0.051245	0.00055
0.276	0.000461	-0.053124	-0.00404	-0.081328	-5e-05	-2.4e-05	0.053762	0.000752
0.2765	8.6e-05	-0.055323	0.000129	-0.064812	0.000418	0.000797	0.046549	-0.00069
0.277	-0.000507	-0.038276	0.005229	-0.040766	0.000349	0.001301	0.034045	-0.002637
0.2775	-0.000132	-0.015407	0.00856	-0.01114	0.000571	0.000504	0.015551	-0.002727
0.278	0.000705	-0.000641	0.009677	0.022684	0.001006	-0.000251	-0.010092	0.000689
0.2785	0.001801	0.005406	0.010331	0.056537	0.001186	0.000701	-0.035571	0.003991
0.279	0.003161	0.010177	0.010117	0.084359	0.001211	0.001746	-0.049325	0.00384
0.2795	0.003669	0.015079	0.007701	0.102779	0.001362	0.000123	-0.051196	0.00393
0.28	0.002827	0.015333	0.004508	0.112665	0.001179	-0.002362	-0.055919	0.007102
0.2805	0.001574	0.009854	0.002376	0.11686	0.000188	-0.001724	-0.073564	0.008481
0.281	0.000659	0.003338	0.000548	0.11597	-0.001593	0.001647	-0.089928	0.004861
0.2815	-1.5e-05	-0.000454	-0.001639	0.105848	-0.003866	0.00414	-0.074001	0.000224
0.282	-0.000258	-0.002762	-0.003203	0.082246	-0.00456	0.004065	-0.012287	-0.001698
0.2825	7.8e-05	-0.006779	-0.004643	0.048776	-0.002223	0.002127	0.065476	-4.1e-05
0.283	0.000277	-0.011427	-0.006873	0.015036	0.000241	-0.000431	0.108979	0.003929
0.2835	0.000108	-0.010879	-0.008229	-0.009735	0.000254	-0.002328	0.099422	0.006813
0.284	0.00046	-0.002551	-0.006955	-0.01995	-0.000397	-0.003066	0.064138	0.007023
0.2845	0.001487	0.008133	-0.002931	-0.018545	-0.000248	-0.00296	0.036514	0.005539
0.285	0.002228	0.013166	0.002867	-0.01473	0.000161	-0.002442	0.021219	0.003363
0.2855	0.0023	0.009485	0.007745	-0.013398	0.001342	-0.002255	0.006696	0.001788
0.286	0.001281	-0.000688	0.008111	-0.012852	0.002894	-0.002712	-0.009563	0.002028
0.2865	-0.001026	-0.012173	0.002305	-0.011921	0.002912	-0.002965	-0.021493	0.002521
0.287	-0.002371	-0.01755	-0.005367	-0.011975	0.001798	-0.002309	-0.028169	0.000588
0.2875	-0.000951	-0.012261	-0.006425	-0.012304	0.000671	-0.001918	-0.036473	-0.002715
0.288	0.001767	1.3e-05	-0.001632	-0.011253	-0.000286	-0.002306	-0.050538	-0.004301
0.2885	0.00403	0.010051	-0.008693	-0.010096	0.000151	-0.001314	-0.065912	-0.003497
0.289	0.005015	0.011413	-0.042579	-0.010318	0.002458	0.00074	-0.078509	-0.001581
0.2895	0.003857	0.006108	-0.086114	-0.011097	0.004507	0.000599	-0.091835	-4.1e-05
0.29	0.001007	0.000951	-0.10009	-0.010776	0.00376	-0.001255	-0.107211	0.000218
0.2905	-0.001472	-0.000553	-0.073185	-0.009116	0.000594	-0.001232	-0.109808	-0.0006
0.291	-0.002218	-6.7e-05	-0.038468	-0.008205	-0.001842	0.000728	-0.079654	-0.001623
0.2915	-0.00164	0.000391	-0.024955	-0.009689	-0.002708	0.001402	-0.023619	-0.00212
0.292	-0.000986	0.00138	-0.020596	-0.011478	-0.004081	0.000449	0.023879	-0.001953
0.2925	-0.001085	0.003328	-0.003206	-0.010216	-0.005861	0.00027	0.047058	-0.00219
0.293	-0.001707	0.004582	0.021814	-0.006768	-0.006165	0.001548	0.070288	-0.00382
0.2935	-0.002651	0.004533	0.03869	-0.005583	-0.005523	0.003243	0.110203	-0.004931
0.294	-0.00417	0.004252	0.052122	-0.008841	-0.00626	0.003763	0.139106	-0.003252
0.2945	-0.005155	0.003445	0.077219	-0.013361	-0.008202	0.00182	0.127336	0.000402
0.295	-0.003735	0.000962	0.111376	-0.013765	-0.008134	-0.002399	0.090052	0.004296
0.2955	-0.000596	-0.002377	0.133394	-0.009579	-0.004755	-0.007031	0.06661	0.006666
0.296	0.001438	-0.003184	0.126041	-0.005183	-0.000499	-0.009536	0.080295	0.006294
0.2965	0.001342	0.000219	0.092443	-0.002225	0.002809	-0.009618	0.125602	0.004941
0.297	0.000431	0.004815	0.054576	-0.000202	0.006689	-0.008985	0.165466	0.004974
0.2975	-0.000587	0.007299	0.035246	-0.000487	0.012339	-0.007691	0.147241	0.005512
0.298	-0.002141	0.007678	0.034227	-0.002702	0.016909	-0.005064	0.056895	0.004368
0.2985	-0.003959	0.008073	0.027513	-0.003892	0.017204	-0.002473	-0.049841	0.002514
0.299	-0.004341	0.010072	-0.000235	-0.003319	0.013798	-0.000986	-0.102385	0.002431
0.2995	-0.002071	0.012967	-0.033461	-0.0027	0.009028	0.00032	-0.092562	0.003539
0.3	0.001115	0.014951	-0.049077	-0.001993	0.005022	0.001796	-0.06561	0.004657
0.3005	0.002915	0.013258	-0.046679	1e-06	0.002623	0.003661	-0.049039	0.006386
0.301	0.003836	0.004093	-0.039404	0.001584	9.5e-05	0.00633	-0.034363	0.008081
0.3015	0.004931	-0.010791	-0.031713	-7e-05	-0.003857	0.008536	-0.019581	0.00752
0.302	0.005263	-0.021616	-0.02348	-0.004952	-0.006961	0.009604	-0.018829	0.003368
0.3025	0.003331	-0.021553	-0.022649	-0.010471	-0.006413	0.009786	-0.027938	-0.002085
0.303	-0.000727	-0.01363	-0.033905	-0.014221	-0.003195	0.008373	-0.023258	-0.003837
0.3035	-0.004668	-0.004586	-0.040577	-0.014945	-0.00116	0.005691	-0.000534	-0.00064
0.304	-0.005515	0.001728	-0.020426	-0.012712	-0.001833	0.003115	0.016287	0.003034
0.3045	-0.002899	0.005216	0.019246	-0.009408	-0.002497	0.00058	0.009392	0.003729
0.305	-0.000509	0.005743	0.043783	-0.007138	-0.000531	-0.002534	-0.011675	0.002936
0.3055	-0.000717	0.001463	0.034291	-0.007882	0.003776	-0.004769	-0.027877	0.001985
0.306	-0.001657	-0.006787	0.008194	-0.011615	0.008928	-0.004778	-0.033875	0.000984
0.3065	-0.001391	-0.015336	-0.010579	-0.014236	0.01375	-0.004397	-0.035083	0.001822
0.307	0.00072	-0.021946	-0.019833	-0.013152	0.016935	-0.003847	-0.033652	0.004087
0.3075	0.00384	-0.024189	-0.028299	-0.011043	0.016386	-0.000864	-0.028129	0.004537
0.308	0.004615	-0.017762	-0.035909	-0.0116	0.01164	0.002233	-0.020577	0.002711
0.3085	0.001556	-0.002961	-0.03799	-0.014574	0.006743	0.001605	-0.016262	0.00098
0.309	-0.001416	0.010721	-0.037863	-0.016026	0.006669	-0.0007	-0.016754	0.000448
0.3095	-0.000592	0.012525	-0.041934	-0.012417	0.010979	-0.001454	-0.017245	-0.000169
0.31	0.001888	0.002084	-0.048666	-0.003371	0.01524	-0.001381	-0.014136	-0.002172
0.3105	0.002034	-0.010521	-0.051093	0.006663	0.017651	-0.001263	-0.010624	-0.005789
0.311	-0.000416	-0.015725	-0.044674	0.012423	0.018305	-0.000945	-0.009491	-0.010022
0.3115	-0.002979	-0.011251	-0.027826	0.014209	0.013942	-0.001248	-0.007995	-0.012411
0.312	-0.003494	0.00032	0.000259	0.014272	0.001473	-0.001699	-0.004265	-0.012581
0.3125	-0.001882	0.013164	0.037174	0.013862	-0.013795	-0.001467	-0.000202	-0.013106
0.313	-0.000219	0.018799	0.07413	0.014559	-0.020195	-0.001691	0.002869	-0.013524
0.3135	-0.000333	0.013378	0.097124	0.015056	-0.012818	-0.002417	0.00446	-0.01064
0.314	-0.001886	0.003657	0.093114	0.012675	-0.00057	-0.002206	0.002489	-0.005796
0.3145	-0.003317	0.000432	0.061266	0.00917	0.005467	-0.001203	-0.004899	-0.003038
0.315	-0.003361	0.007763	0.017802	0.009403	0.005422	-0.000585	-0.016087	-0.002493
0.3155	-0.00168	0.020598	-0.018149	0.014517	0.003459	-2e-05	-0.0292	-0.002204
0.316	0.000387	0.02922	-0.041344	0.019639	-0.004672	0.001669	-0.047914	-0.000958
0.3165	0.001456	0.026	-0.057898	0.020143	-0.02307	0.003257	-0.074641	0.001343
0.317	0.002524	0.012449	-0.072027	0.016105	-0.04066	0.002677	-0.099823	0.00287
0.3175	0.003929	-0.001955	-0.080831	0.010308	-0.040578	0.001161	-0.110531	0.002617
0.318	0.003187	-0.009689	-0.080197	0.005713	-0.021582	0.000962	-0.105976	0.001864
0.3185	-0.000454	-0.00983	-0.071666	0.003304	0.002118	0.001889	-0.090969	0.001527
0.319	-0.003747	-0.005279	-0.06017	0.001818	0.018319	0.002238	-0.057493	0.000892
0.3195	-0.003431	-0.000103	-0.045449	0.00072	0.023673	0.000904	0.005835	-0.000981
0.32	-0.000779	0.002454	-0.021208	0.001035	0.016855	-0.001204	0.081608	-0.002304
0.3205	-0.000204	0.001102	0.012224	0.002425	-0.000336	-0.001948	0.129345	0.000278
0.321	-0.002494	-0.003552	0.041527	0.002942	-0.014856	-0.000328	0.135959	0.005096
0.3215	-0.00415	-0.00897	0.053936	0.002338	-0.011945	0.001852	0.129539	0.006349
0.322	-0.003249	-0.011753	0.04616	0.002113	0.006238	0.001783	0.127024	0.00271
0.3225	-0.000934	-0.009616	0.018354	0.002043	0.022412	-0.000251	0.105524	-0.001254
0.323	0.000687	-0.002272	-0.022305	0.000558	0.020995	-0.000972	0.049606	-0.000785
0.3235	2.5e-05	0.007601	-0.053819	-0.000857	-0.002776	0.000911	-0.010446	0.003769
0.324	-0.002368	0.014832	-0.054594	0.000315	-0.041669	0.002916	-0.036731	0.006732
0.3245	-0.003952	0.016593	-0.025236	0.002344	-0.076367	0.00335	-0.028928	0.004684
0.325	-0.003369	0.013952	0.017567	0.003102	-0.086385	0.002742	-0.007806	0.001576
0.3255	-0.002256	0.00921	0.061208	0.003193	-0.0694	0.001553	0.01682	0.002457
0.326	-0.002302	0.006088	0.095792	0.00033	-0.040691	0.000699	0.040885	0.006097
0.3265	-0.002408	0.006169	0.10541	-0.0107	-0.013193	0.000318	0.054279	0.008114
0.327	-0.001352	0.005808	0.08369	-0.028979	0.009955	-0.001071	0.051533	0.007201
0.3275	-0.000688	0.003102	0.049107	-0.044989	0.026387	-0.003298	0.038677	0.004337
0.328	-0.001847	0.000808	0.024549	-0.051791	0.031571	-0.004275	0.024362	0.000657
0.3285	-0.003387	5.6e-05	0.007865	-0.052119	0.024283	-0.003333	0.013096	-0.001534
0.329	-0.00341	-0.001334	-0.019239	-0.051541	0.003635	-0.001908	0.005126	-0.001095
0.3295	-0.002392	-0.004083	-0.057389	-0.052491	-0.032504	-0.000968	-0.001277	-0.001364
0.33	-0.002735	-0.005986	-0.082816	-0.052198	-0.067459	-1.1e-05	-0.006369	-0.004634
0.3305	-0.004998	-0.005343	-0.070952	-0.046107	-0.05803	0.00184	-0.00866	-0.007772
0.331	-0.005993	-0.003179	-0.01564	-0.035435	0.014676	0.00439	-0.008206	-0.00808
0.3315	-0.003667	-0.001951	0.061155	-0.022113	0.095467	0.005193	-0.007172	-0.006182
0.332	-0.000454	-0.002232	0.109714	-0.003349	0.109498	0.002219	-0.007548	-0.004221
0.3325	0.001214	-0.001999	0.08909	0.021004	0.058902	-0.002077	-0.00986	-0.004904
0.333	0.002674	-0.000118	0.017922	0.046611	0.00933	-0.003254	-0.013825	-0.007785
0.3335	0.005565	0.001461	-0.03624	0.070345	-0.004177	-0.001073	-0.018514	-0.009155
0.334	0.007973	0.000149	-0.029587	0.090622	-0.002699	0.001132	-0.021111	-0.007677
0.3345	0.007722	-0.0033	0.018853	0.105351	-0.007474	0.001188	-0.019131	-0.004449
0.335	0.005738	-0.006089	0.066539	0.112285	-0.011319	-0.000863	-0.013914	0.000536
0.3355	0.003634	-0.007134	0.095216	0.107078	-0.006584	-0.002403	-0.009499	0.00589
0.336	0.001722	-0.006647	0.10508	0.084631	-0.000751	-0.000803	-0.009036	0.007412
0.3365	-0.000339	-0.006086	0.092446	0.048857	-0.000725	0.001501	-0.011309	0.004636
0.337	-0.001794	-0.006852	0.057668	0.013826	-0.004102	0.000951	-0.011543	0.001906
0.3375	-0.001063	-0.007669	0.017965	-0.008753	-0.006356	-0.000577	-0.008718	0.001112
0.338	0.001248	-0.007585	-0.006332	-0.017276	-0.007175	0.000199	-0.007217	0.000826
0.3385	0.003285	-0.006921	-0.011736	-0.016946	-0.007641	0.002368	-0.008282	0.000298
0.339	0.005214	-0.004933	-0.011885	-0.013911	-0.006446	0.00319	-0.008632	-0.000437
0.3395	0.007836	-0.001166	-0.022867	-0.011844	-0.00295	0.001916	-0.007732	-0.001306
0.34	0.010015	0.003987	-0.046287	-0.011052	0.000132	-5.1e-05	-0.00733	-0.001142
0.3405	0.01022	0.010101	-0.063747	-0.010924	0.000657	-0.00138	-0.007479	0.000695
0.341	0.008883	0.016243	-0.056456	-0.011927	0.00038	-0.00215	-0.007106	0.001743
0.3415	0.007486	0.021449	-0.032162	-0.012928	0.001254	-0.002149	-0.003774	-5e-06
0.342	0.006108	0.024358	-0.019205	-0.011526	0.002844	-0.000612	0.004139	-0.003121
0.3425	0.003734	0.021833	-0.030369	-0.007966	0.004701	0.001361	0.01124	-0.005118
0.343	0.001481	0.011665	-0.04761	-0.004991	0.006513	0.001806	0.007942	-0.004038
0.3435	0.001779	-0.002592	-0.04836	-0.005321	0.007619	0.000949	-0.007956	0.000378
0.344	0.003909	-0.013213	-0.03367	-0.009334	0.008006	0.000454	-0.02718	0.006152
0.3445	0.00477	-0.017691	-0.021167	-0.015092	0.007559	0.001128	-0.035891	0.010727
0.345	0.003327	-0.02277	-0.020263	-0.019985	0.005732	0.002403	-0.027347	0.01258
0.3455	0.001641	-0.033892	-0.025654	-0.021822	0.003027	0.003026	-0.009525	0.012327
0.346	0.001905	-0.045304	-0.028697	-0.020262	0.001338	0.001856	0.001799	0.012044
0.3465	0.003376	-0.046893	-0.026815	-0.016167	0.002669	-0.000452	-0.0022	0.013333
0.347	0.004092	-0.037837	-0.022916	-0.011144	0.006721	-0.001228	-0.016576	0.015759
0.3475	0.003811	-0.026692	-0.019486	-0.007868	0.010088	2.4e-05	-0.028325	0.015871
0.348	0.0025	-0.018926	-0.016401	-0.007504	0.011825	0.001338	-0.028477	0.01044
0.3485	5.7e-05	-0.013632	-0.012674	-0.008256	0.016745	0.00159	-0.019046	0.001215
0.349	-0.001893	-0.011808	-0.007486	-0.007551	0.028344	0.000404	-0.010049	-0.007028
0.3495	-0.002132	-0.016696	-0.001259	-0.005541	0.043477	-0.001092	-0.010255	-0.012135
0.35	-0.001792	-0.025907	0.003473	-0.004936	0.055932	-0.000976	-0.017553	-0.01606
0.3505	-0.002138	-0.029813	0.004956	-0.00622	0.061015	0.000555	-0.019523	-0.020942
0.351	-0.002729	-0.019203	0.0047	-0.006454	0.057492	0.002032	-0.007676	-0.024869
0.3515	-0.002243	0.005521	0.004748	-0.003962	0.047966	0.002634	0.011994	-0.024616
0.352	-0.000185	0.033244	0.005447	-0.001438	0.037634	0.002618	0.025622	-0.021491
0.3525	0.001857	0.051018	0.006727	-0.002145	0.029562	0.002202	0.023986	-0.018785
0.353	0.001907	0.055006	0.008772	-0.005541	0.019666	0.000948	0.010687	-0.016721
0.3535	0.00074	0.049304	0.011494	-0.00851	0.00261	-0.001159	0.00436	-0.014474
0.354	0.000275	0.036425	0.014925	-0.008052	-0.014634	-0.003294	0.023297	-0.011824
0.3545	0.000242	0.020468	0.018944	-0.00436	-0.014063	-0.004072	0.055646	-0.008751
0.355	-0.000469	0.01029	0.020976	-0.001276	0.007818	-0.003343	0.060714	-0.006129
0.3555	-0.001574	0.007656	0.016816	-0.000574	0.020133	-0.002288	0.021671	-0.004357
0.356	-0.002122	0.005261	0.00383	4.6e-05	-0.015396	-0.001045	-0.021091	-0.002431
0.3565	-0.002055	-0.0003	-0.018766	0.000959	-0.089268	0.000637	-0.018749	0.000164
0.357	-0.002307	-0.005024	-0.047381	-0.000106	-0.137552	0.001882	0.018289	0.002709
0.3575	-0.003536	-0.004175	-0.070549	-0.00199	-0.109964	0.000935	0.037964	0.00523
0.358	-0.005434	0.005072	-0.075512	-0.00209	-0.03117	-0.002117	0.023477	0.008367
0.3585	-0.007361	0.019179	-0.060618	-0.000915	0.026806	-0.004593	0.010247	0.010958
0.359	-0.008749	0.023566	-0.037854	0.000793	0.025358	-0.00604	0.024601	0.010714
0.3595	-0.008857	0.006726	-0.019713	0.001782	-0.008219	-0.007193	0.045635	0.006374
0.36	-0.0078	-0.022019	-0.003479	0.000234	-0.029401	-0.006412	0.043126	-5e-06
0.3605	-0.006535	-0.04015	0.025399	-0.001454	-0.032639	-0.004	0.022675	-0.003936
0.361	-0.004828	-0.035518	0.06858	-0.000823	-0.041663	-0.002465	0.009681	-0.005391
0.3615	-0.002652	-0.016399	0.101796	0.000161	-0.063323	-0.001939	0.009993	-0.008059
0.362	-0.002016	0.00232	0.10123	0.000441	-0.075882	-0.001736	0.009791	-0.010737
0.3625	-0.003488	0.014662	0.075905	0.000487	-0.058169	-0.001829	0.001418	-0.009898
0.363	-0.004675	0.020896	0.052202	-0.000725	-0.015035	-0.000754	-0.009615	-0.006694
0.3635	-0.004632	0.01987	0.031128	-0.002439	0.026631	0.00164	-0.016923	-0.003654
0.364	-0.004791	0.012189	-0.006958	-0.002175	0.041717	0.002094	-0.020169	-0.001942
0.3645	-0.004782	0.005277	-0.055314	-0.001856	0.028121	0.000432	-0.023131	-0.002159
0.365	-0.003044	0.007731	-0.077465	-0.004866	0.004957	0.000593	-0.028853	-0.001777
0.3655	-0.001056	0.020429	-0.05594	-0.008897	-0.008646	0.002701	-0.03523	0.002296
0.366	-0.001781	0.036361	-0.013979	-0.010866	-0.008143	0.003146	-0.03671	0.008674
0.3665	-0.005082	0.04676	0.015463	-0.012243	-0.00116	0.000881	-0.027473	0.014227
0.367	-0.007796	0.046197	0.022278	-0.014553	0.003061	-0.002337	-0.001872	0.018335
0.3675	-0.007465	0.033932	0.016451	-0.016706	0.001767	-0.00451	0.039396	0.022122
0.368	-0.004932	0.013442	0.009221	-0.017071	-0.001891	-0.00395	0.079617	0.025088
0.3685	-0.003048	-0.008595	0.004937	-0.014191	-0.004009	-0.000597	0.092311	0.025482
0.369	-0.003095	-0.025681	0.001994	-0.007968	-0.003206	0.002541	0.067661	0.022845
0.3695	-0.00399	-0.034635	-0.001231	-0.001582	-0.000721	0.002953	0.026882	0.017328
0.37	-0.004813	-0.033795	-0.001366	0.002162	0.00125	0.002455	-0.001148	0.009741
0.3705	-0.005339	-0.022754	0.004164	0.005256	0.001391	0.003204	-0.012139	0.001875
0.371	-0.004215	-0.008656	0.011202	0.011591	0.000253	0.003462	-0.024273	-0.005177
0.3715	9.7e-05	-0.004526	0.013949	0.022072	-0.00083	0.001444	-0.048709	-0.010298
0.372	0.005983	-0.013211	0.011808	0.032986	-0.000891	-0.000614	-0.078606	-0.012199
0.3725	0.008769	-0.019495	0.008724	0.037913	0.000342	-0.000535	-0.107267	-0.012027
0.373	0.00658	-0.00613	0.008482	0.03289	0.002093	0.000292	-0.137258	-0.011673
0.3735	0.003513	0.023214	0.011684	0.020915	0.003847	0.000597	-0.167793	-0.010762
0.374	0.003068	0.042938	0.015409	0.010309	0.006321	0.000983	-0.179838	-0.009358
0.3745	0.003397	0.033089	0.01625	0.006262	0.010143	0.001992	-0.133678	-0.008409
0.375	0.002314	0.003453	0.014125	0.006083	0.014544	0.003305	-0.001615	-0.00584
0.3755	0.000917	-0.019536	0.010338	0.005321	0.017201	0.003565	0.173601	0.001542
0.376	0.000539	-0.024694	0.003665	0.004048	0.015958	0.00194	0.277995	0.012867
0.3765	0.000832	-0.022091	-0.007359	0.004254	0.012367	-0.000617	0.231606	0.022138
0.377	0.00135	-0.022535	-0.02029	0.004922	0.011053	-0.002381	0.088732	0.022849
0.3775	0.001992	-0.026815	-0.028814	0.004757	0.012884	-0.001717	-0.017134	0.015857
0.378	0.002885	-0.030829	-0.026794	0.005209	0.013964	0.001404	-0.025935	0.008361
0.3785	0.004207	-0.028912	-0.014446	0.005796	0.013141	0.004491	0.006804	0.004367
0.379	0.004908	-0.017209	-0.000148	0.004559	0.012906	0.005029	0.016097	0.003231
0.3795	0.004748	0.001529	0.006856	0.001851	0.013229	0.003701	0.006266	0.003595
0.38	0.006243	0.017285	0.005549	-0.001864	0.012104	0.002789	0.007463	0.00387
0.3805	0.009545	0.016779	0.002617	-0.005604	0.010158	0.001865	0.014493	0.005001
0.381	0.009709	-0.00343	0.003156	-0.006111	0.009383	-0.000403	0.00323	0.013395
0.3815	0.004216	-0.027719	0.005347	-0.002591	0.009612	-0.001854	-0.025027	0.033722
0.382	-0.001973	-0.036995	0.00482	0.000489	0.009407	-0.000788	-0.045517	0.057799
0.3825	-0.003296	-0.032692	0.001185	0.000609	0.007909	-0.000689	-0.04488	0.068658
0.383	-0.000676	-0.031608	-0.001213	-0.000148	0.004708	-0.002851	-0.037042	0.05736
0.3835	0.001234	-0.035775	0.000768	-0.000855	0.001372	-0.002684	-0.043039	0.029782
0.384	1e-06	-0.027047	0.004334	-0.001154	0.000548	0.000281	-0.06395	-0.00087
0.3845	-0.002331	0.005402	0.00523	-0.000587	0.002083	0.001775	-0.088808	-0.02433
0.385	-0.002469	0.049633	0.003732	-0.000209	0.004063	0.001256	-0.12373	-0.03866
0.3855	-0.000527	0.083273	0.002144	-0.00017	0.004973	0.000252	-0.179758	-0.047017
0.386	0.001492	0.091248	0.001127	-0.000584	0.003995	-0.001315	-0.223375	-0.051742
0.3865	0.003243	0.072476	-4.5e-05	-0.002637	0.001863	-0.00347	-0.181327	-0.052972
0.387	0.005371	0.038206	-0.002509	-0.006178	-0.000548	-0.005744	-0.034316	-0.049839
0.3875	0.007256	0.006235	-0.005395	-0.009005	-0.003297	-0.00717	0.115724	-0.042892
0.388	0.007194	-0.010904	-0.006723	-0.009024	-0.004929	-0.006236	0.1262	-0.036301
0.3885	0.00476	-0.014907	-0.00701	-0.006545	-0.003197	-0.00328	-0.029216	-0.033471
0.389	0.001675	-0.015107	-0.007509	-0.003505	0.001804	-0.000424	-0.211838	-0.032404
0.3895	0.000464	-0.01591	-0.007685	-0.002353	0.008834	0.001996	-0.238158	-0.031043
0.39	0.001936	-0.016007	-0.006621	-0.003278	0.016775	0.00513	-0.053838	-0.030009
0.3905	0.004543	-0.012409	-0.00422	-0.003596	0.02613	0.008803	0.210896	-0.028157
0.391	0.006528	-0.00032	-0.001493	-0.003084	0.040817	0.011072	0.366527	-0.022201
0.3915	0.006877	0.02155	-0.000458	-0.00335	0.062456	0.01073	0.333318	-0.010166
0.392	0.005722	0.043949	-0.002114	-0.003785	0.084302	0.009889	0.179837	0.003892
0.3925	0.004738	0.051629	-0.004649	-0.002819	0.095896	0.009871	0.036115	0.01251
0.393	0.004966	0.037786	-0.005338	-0.000937	0.093982	0.00896	-0.001146	0.016224
0.3935	0.004815	0.014171	-0.004518	0.000127	0.085106	0.007153	0.077024	0.023177
0.394	0.002796	0.001986	-0.004477	0.000407	0.076028	0.004851	0.185843	0.035104
0.3945	0.00033	0.010558	-0.004602	1.7e-05	0.068849	0.000799	0.218879	0.04442
0.395	-0.001114	0.027655	-0.003268	-0.000681	0.062356	-0.004472	0.152558	0.046679
0.3955	-0.001559	0.033717	-0.00096	-0.000588	0.046306	-0.008353	0.058411	0.043592
0.396	-0.000589	0.023557	0.001768	-0.001398	0.003512	-0.009118	0.005074	0.035573
0.3965	0.001295	0.007471	0.00376	-0.003693	-0.0646	-0.008629	-0.012765	0.023354
0.397	0.002135	-0.003069	0.003915	-0.004478	-0.126337	-0.009489	-0.033567	0.009912
0.3975	0.001389	-0.002785	0.004154	-0.003268	-0.159434	-0.009773	-0.062288	-0.00416
0.398	-0.000403	0.007317	0.005512	-0.0018	-0.181879	-0.006956	-0.075936	-0.01927
0.3985	-0.003241	0.019113	0.005439	0.000339	-0.207618	-0.003522	-0.068311	-0.033046
0.399	-0.005955	0.018387	0.002663	0.002581	-0.206065	-0.002636	-0.056906	-0.042042
0.3995	-0.006547	-0.005409	-0.000555	0.001805	-0.152283	-0.003115	-0.054962	-0.044054
0.4	-0.00593	-0.049141	-0.001368	-0.001006	-0.082764	-0.002638	-0.058236	-0.038751
0.4005	-0.00666	-0.100042	0.000666	-0.001491	-0.052122	-0.000624	-0.054379	-0.028706
0.401	-0.00862	-0.146783	0.003289	7.9e-05	-0.059135	0.003347	-0.030238	-0.017976
0.4015	-0.009619	-0.182394	0.004689	0.000481	-0.058824	0.008094	0.02309	-0.00913
0.402	-0.008288	-0.201628	0.005478	-0.000483	-0.030809	0.009652	0.093236	-0.004182
0.4025	-0.005094	-0.201448	0.005988	-0.000916	0.002851	0.006383	0.137466	-0.003141
0.403	-0.001513	-0.180321	0.004683	-0.000528	0.020619	0.001389	0.114639	-0.00046
0.4035	0.000932	-0.134377	0.001485	-0.001159	0.028161	-0.002442	0.034364	0.008603
0.404	0.000752	-0.062937	-0.00038	-0.003168	0.037641	-0.005316	-0.044193	0.020479
0.4045	-0.001648	0.016836	0.000705	-0.003367	0.044877	-0.008615	-0.072113	0.027817
0.405	-0.002989	0.075099	0.001135	-0.0002	0.039045	-0.012244	-0.053918	0.027588
0.4055	-0.001372	0.100513	-0.002104	0.002725	0.023251	-0.013354	-0.026091	0.023168
0.406	0.000818	0.109978	-0.007337	0.002894	0.011403	-0.010291	-0.013091	0.021077
0.4065	0.000908	0.117839	-0.011325	0.00244	0.009175	-0.006104	-0.017073	0.024779
0.407	0.000212	0.116615	-0.011456	0.002877	0.011178	-0.00384	-0.032827	0.030496
0.4075	0.001296	0.096015	-0.008963	0.002948	0.013893	-0.002907	-0.047352	0.032775
0.408	0.003833	0.06247	-0.008288	0.001689	0.019868	-0.001428	-0.035636	0.032958
0.4085	0.00595	0.033456	-0.009882	-6e-05	0.030594	0.001401	0.010572	0.035921
0.409	0.006237	0.021585	-0.011012	-0.000953	0.045222	0.004081	0.053295	0.042828
0.4095	0.003821	0.026601	-0.010865	-0.000545	0.06566	0.004392	0.039234	0.050603
0.41	-0.001205	0.034998	-0.009198	0.001144	0.091355	0.002992	-0.033599	0.054108
0.4105	-0.007099	0.027785	-0.005212	0.003454	0.109574	0.002777	-0.102069	0.049594
0.411	-0.010328	6.3e-05	0.000381	0.004641	0.105552	0.004692	-0.09944	0.037716
0.4115	-0.008064	-0.031258	0.005583	0.003301	0.08408	0.006876	-0.021807	0.021627
0.412	-0.00202	-0.046496	0.009722	0.000436	0.0669	0.007737	0.066186	0.001919
0.4125	0.00248	-0.037386	0.013302	-0.00046	0.066969	0.006495	0.086366	-0.023186
0.413	0.002077	-0.000536	0.015757	0.001623	0.077922	0.003108	0.014971	-0.05077
0.4135	-0.001503	0.058583	0.015588	0.00357	0.087668	5.9e-05	-0.095853	-0.06932
0.414	-0.003847	0.107118	0.012271	0.004232	0.088408	-0.001228	-0.16527	-0.066398
0.4145	-0.002564	0.104005	0.007771	0.003989	0.075811	-0.001874	-0.15342	-0.043647
0.415	0.000306	0.053687	0.004695	0.002518	0.050559	-0.000908	-0.086326	-0.019062
0.4155	0.000634	0.007123	0.00284	0.002607	0.013378	0.001763	-0.019959	-0.007855
0.416	-0.002669	-0.002501	0.001392	0.005405	-0.046595	0.002283	0.011342	-0.008657
0.4165	-0.005993	0.006306	0.001775	0.006147	-0.135557	-0.000598	0.011064	-0.013472
0.417	-0.005419	0.003661	0.004679	0.003249	-0.220868	-0.003251	5.4e-05	-0.018614
0.4175	-0.001568	-0.006934	0.008199	0.00104	-0.245951	-0.003573	-0.00707	-0.020468
0.418	0.001487	-0.004834	0.009295	0.000797	-0.192361	-0.002789	-0.00746	-0.014098
0.4185	0.00138	0.00808	0.005994	-0.000508	-0.1023	-0.001405	-0.001709	-0.001393
0.419	-0.000562	0.012208	0.000252	-0.002527	-0.030699	-0.00013	0.011751	0.008307
0.4195	-0.00175	0.003147	-0.003022	-0.002355	0.004169	-0.001034	0.03063	0.007902
0.42	-0.001404	-0.00618	-0.001618	-0.00047	0.01486	-0.0034	0.04296	0.000989
0.4205	-0.000338	-0.008972	0.001744	0.00122	0.014565	-0.003711	0.035806	-0.002693
0.421	0.000964	-0.010167	0.003437	0.001688	0.009121	-0.001206	0.010418	-0.000903
0.4215	0.00145	-0.013469	0.003184	0.000623	0.002453	0.000635	-0.017659	0.001516
0.422	-6.6e-05	-0.015497	0.002611	-0.000834	-0.003873	3e-05	-0.036919	0.003484
0.4225	-0.002558	-0.011894	0.001321	-0.001796	-0.011773	-0.000852	-0.048376	0.005716
0.423	-0.004222	-0.002297	-0.00083	-0.003082	-0.023567	-0.00058	-0.04726	0.004954
0.4235	-0.004611	0.011225	-0.001896	-0.004553	-0.037654	0.00038	-0.016642	0.000814
0.424	-0.004041	0.024744	-0.002832	-0.00394	-0.047044	0.001073	0.039656	-0.000959
0.4245	-0.00278	0.030897	-0.006427	-0.001761	-0.045001	0.001005	0.081247	0.001323
0.425	-0.001829	0.023137	-0.010991	-0.001075	-0.034546	0.000885	0.075853	0.003319
0.4255	-0.002257	0.004042	-0.012425	-0.001926	-0.025965	0.000958	0.04114	0.002396
0.426	-0.002454	-0.015171	-0.010774	-0.003467	-0.022073	0.000795	0.017927	-0.001667
0.4265	-0.000804	-0.024858	-0.01024	-0.005842	-0.016878	0.000259	0.018002	-0.00767
0.427	0.000332	-0.022998	-0.013135	-0.006835	-0.007927	-0.000817	0.022674	-0.012642
0.4275	-0.000529	-0.013132	-0.016584	-0.003778	0.001379	-0.001393	0.019539	-0.014771
0.428	-0.000397	-0.001717	-0.016194	0.001123	0.007458	0.000299	0.014079	-0.014597
0.4285	0.002284	0.005573	-0.012006	0.003464	0.00889	0.003111	0.011768	-0.013165
0.429	0.004974	0.008915	-0.008026	0.004294	0.007829	0.004479	0.010048	-0.011539
0.4295	0.00563	0.010883	-0.00641	0.007174	0.009151	0.004541	0.006717	-0.012504
0.43	0.004287	0.008488	-0.005982	0.01008	0.015572	0.004208	0.004334	-0.018537
0.4305	0.001766	-0.002043	-0.004624	0.008539	0.02489	0.003726	0.004584	-0.027335
0.431	-0.000512	-0.014142	-0.001779	0.002475	0.031859	0.0038	0.004608	-0.03415
0.4315	-0.00131	-0.016337	-0.000104	-0.00408	0.032913	0.003998	0.002778	-0.036245
0.432	-0.000107	-0.010271	-0.001865	-0.00737	0.03006	0.003407	0.001505	-0.032603
0.4325	0.00222	-0.012327	-0.004281	-0.006238	0.029979	0.002802	0.001177	-0.023921
0.433	0.003523	-0.030589	-0.002626	-0.001349	0.03738	0.002491	0.000356	-0.014023
0.4335	0.003334	-0.04843	0.004037	0.003673	0.047638	0.001857	4.1e-05	-0.007131
0.434	0.003268	-0.04174	0.011897	0.003711	0.051265	0.001816	0.000439	-0.003297
0.4345	0.004466	-0.006448	0.015815	-0.001988	0.046957	0.002666	-9.7e-05	-0.000192
0.435	0.006524	0.038996	0.014862	-0.00984	0.042452	0.002608	-0.002099	0.00201
0.4355	0.007969	0.070482	0.012731	-0.015709	0.04277	0.001564	-0.005597	0.002051
0.436	0.008221	0.073002	0.011339	-0.017596	0.04453	0.00116	-0.009949	0.000919
0.4365	0.007658	0.04708	0.008496	-0.017089	0.040896	0.0014	-0.013482	-4.5e-05
0.437	0.005729	0.007344	0.00248	-0.016195	0.027469	0.001319	-0.016092	-0.001707
0.4375	0.002876	-0.025105	-0.004014	-0.014515	0.006823	0.000413	-0.01971	-0.004748
0.438	0.001788	-0.03568	-0.006232	-0.01153	-0.007967	-0.001427	-0.027099	-0.005926
0.4385	0.00338	-0.027116	-0.003203	-0.008356	-0.000284	-0.00336	-0.040508	-0.000542
0.439	0.004887	-0.013601	0.002722	-0.005249	0.030054	-0.004057	-0.057347	0.011973
0.4395	0.003411	-0.003552	0.009921	-0.000885	0.056839	-0.003596	-0.06945	0.026885
0.44	-0.000512	0.005654	0.016607	0.003576	0.048484	-0.003239	-0.069908	0.037826
0.4405	-0.003826	0.017273	0.019462	0.005897	0.00209	-0.002844	-0.056406	0.0426
0.441	-0.004505	0.026477	0.016088	0.008382	-0.047821	-0.001054	-0.030796	0.044409
0.4415	-0.002766	0.02454	0.008289	0.014568	-0.062394	0.001003	-0.002926	0.045791
0.442	-0.000242	0.011415	0.001526	0.022412	-0.043017	0.000606	0.01453	0.045507
0.4425	0.000935	-0.002539	-0.000554	0.026733	-0.030156	-0.00154	0.027726	0.043712
0.443	0.000305	-0.009409	0.000382	0.025722	-0.050154	-0.001951	0.064094	0.042358
0.4435	0.000183	-0.009936	0.000315	0.020883	-0.081163	0.00037	0.129579	0.039022
0.444	0.001768	-0.010193	-0.002756	0.014235	-0.083473	0.00205	0.178633	0.030519
0.4445	0.002652	-0.016722	-0.007606	0.007273	-0.046975	0.000411	0.16123	0.019064
0.445	0.001442	-0.029114	-0.011059	0.001132	0.00021	-0.002011	0.085693	0.006673
0.4455	-0.000501	-0.038499	-0.010458	-0.002397	0.018641	-0.002061	0.003419	-0.009138
0.446	-0.002199	-0.036758	-0.00562	-0.002364	-0.005868	-0.001021	-0.049433	-0.028962
0.4465	-0.002958	-0.024484	0.000971	-0.000304	-0.040824	-0.001335	-0.066943	-0.047022
0.447	-0.002561	-0.010179	0.005824	0.000523	-0.031398	-0.00202	-0.051082	-0.057023
0.4475	-0.002237	-0.004437	0.006644	-0.001372	0.037725	-0.001151	-0.008826	-0.057807
0.448	-0.002438	-0.010942	0.00325	-0.003187	0.116386	0.000349	0.035156	-0.052525
0.4485	-0.001989	-0.021487	-0.001894	-0.002954	0.142827	0.000996	0.052435	-0.047047
0.449	-0.001022	-0.025752	-0.005307	-0.001793	0.111578	0.000529	0.038667	-0.044798
0.4495	-0.00096	-0.022474	-0.005959	-0.000189	0.068856	-0.000469	0.013104	-0.041696
0.45	-0.001029	-0.01641	-0.005284	0.000466	0.050992	-0.000277	-0.005746	-0.03102
0.4505	0.000186	-0.010443	-0.00534	-0.001453	0.053299	0.000912	-0.014378	-0.012026
0.451	0.001931	-0.003779	-0.007004	-0.003811	0.05781	0.000597	-0.017753	0.006981
0.4515	0.003165	0.003324	-0.007871	-0.004561	0.057829	-0.000966	-0.019737	0.017082
0.452	0.003538	0.007761	-0.00426	-0.004478	0.046391	-0.001221	-0.022742	0.02104
0.4525	0.002829	0.009022	0.003823	-0.003494	0.012742	-0.000135	-0.029643	0.029712
0.453	0.001565	0.009388	0.011664	-0.002198	-0.03432	9.7e-05	-0.041588	0.044928
0.4535	-1.8e-05	0.00839	0.014034	-0.002716	-0.063432	-0.001313	-0.05247	0.055052
0.454	-0.003091	0.004192	0.010059	-0.003141	-0.05893	-0.003063	-0.046906	0.051669
0.4545	-0.007071	-0.001149	0.004484	-0.000857	-0.041854	-0.003946	-0.013028	0.039793
0.455	-0.008749	-0.003311	0.003183	0.001531	-0.035052	-0.003945	0.036122	0.02775
0.4555	-0.007344	-0.002164	0.00665	0.00212	-0.030965	-0.003512	0.064847	0.016827
0.456	-0.005419	-0.002482	0.010159	0.002733	-0.01357	-0.003293	0.049602	0.003595
0.4565	-0.004605	-0.005598	0.010164	0.003098	0.009705	-0.002936	0.000889	-0.01206
0.457	-0.005046	-0.00586	0.007541	0.000997	0.018343	-0.000112	-0.056875	-0.025877
0.4575	-0.00607	-0.000646	0.004316	-0.001749	0.008373	0.005224	-0.109523	-0.034676
0.458	-0.005345	0.004886	0.000527	-0.001356	-0.00468	0.008762	-0.146228	-0.037568
0.4585	-0.002223	0.006465	-0.003988	0.001321	-0.008533	0.00757	-0.147785	-0.034386
0.459	-0.000394	0.004703	-0.008269	0.002945	-0.007099	0.003135	-0.103425	-0.026498
0.4595	-0.002214	0.000909	-0.011506	0.002615	-0.010207	-0.000789	-0.032404	-0.017179
0.46	-0.004345	-0.003869	-0.012315	0.00142	-0.020822	-0.001467	0.028318	-0.009765
0.4605	-0.003211	-0.006048	-0.008623	0.000569	-0.034325	0.000132	0.05396	-0.006036
0.461	-4.7e-05	-0.00177	-0.001621	-3.2e-05	-0.044545	0.001631	0.049008	-0.005749
0.4615	0.001949	0.006083	0.002662	-0.001533	-0.048635	0.002271	0.051186	-0.006051
0.462	0.001915	0.009396	-0.000477	-0.00412	-0.048037	0.002552	0.100161	-0.0035
0.4625	0.001437	0.004568	-0.009162	-0.006498	-0.046164	0.003248	0.174258	0.002852
0.463	0.001575	-0.005152	-0.01794	-0.006626	-0.044099	0.0035	0.194571	0.012414
0.4635	0.001978	-0.013789	-0.022074	-0.004048	-0.038243	0.002249	0.125405	0.023094
0.464	0.002009	-0.014708	-0.019661	-0.001295	-0.023856	0.00102	0.028334	0.030018
0.4645	0.000954	-0.005229	-0.012791	0.0002	-0.001748	0.000236	-0.017666	0.029247
0.465	-0.000624	0.007911	-0.005116	0.001666	0.020204	-0.001824	-0.010195	0.022766
0.4655	-0.00089	0.013443	0.001638	0.002518	0.035143	-0.004685	0.00074	0.016141
0.466	0.000351	0.007096	0.007631	0.000869	0.043448	-0.005663	-0.004104	0.011631
0.4665	0.00129	-0.005341	0.012919	-0.001952	0.045943	-0.002355	-0.005509	0.008602
0.467	0.001202	-0.014733	0.016393	-0.003419	0.039565	0.004778	-0.000645	0.007219
0.4675	0.001957	-0.015808	0.01688	-0.003095	0.025173	0.011343	-0.009022	0.006744
0.468	0.004285	-0.008791	0.015422	-0.001408	0.009104	0.013049	-0.026309	0.006158
0.4685	0.005239	0.004011	0.01451	-0.000172	-0.004826	0.009527	-0.020694	0.005715
0.469	0.002951	0.018808	0.013537	-0.000865	-0.017764	0.003112	0.012025	0.005197
0.4695	-0.000111	0.030045	0.009356	-0.001516	-0.031682	-0.003402	0.024584	0.004167
0.47	-0.001527	0.035536	0.003027	-0.001187	-0.047497	-0.008065	-0.027017	0.002094
0.4705	-0.001654	0.037135	-0.001409	-0.001799	-0.066062	-0.010828	-0.121727	-0.001112
0.471	-0.001023	0.034669	-0.003722	-0.003401	-0.085342	-0.011762	-0.186153	-0.003565
0.4715	-0.000436	0.026452	-0.005213	-0.003586	-0.096348	-0.010238	-0.168123	-0.003578
0.472	-0.000971	0.015251	-0.004834	-0.001411	-0.089572	-0.007124	-0.091515	-0.003013
0.4725	-0.001563	0.006983	-0.002374	0.000758	-0.069754	-0.004643	-0.031654	-0.004852
0.473	-0.001232	0.005505	-0.000453	0.000801	-0.054004	-0.004156	-0.034235	-0.007302
0.4735	8e-06	0.010653	-0.001747	-0.000702	-0.047581	-0.00449	-0.069183	-0.007199
0.474	0.002073	0.014352	-0.005273	-0.002064	-0.037956	-0.00404	-0.070708	-0.006413
0.4745	0.003074	0.002841	-0.008645	-0.001478	-0.019227	-0.003178	-0.005282	-0.006853
0.475	0.00242	-0.026017	-0.013459	0.000825	0.000335	-0.001962	0.108365	-0.005739
0.4755	0.002013	-0.054192	-0.020656	0.001706	0.018149	6.2e-05	0.213782	-0.000919
0.476	0.001717	-0.062266	-0.02481	0.000117	0.041226	0.00173	0.240635	0.004955
0.4765	0.000582	-0.050297	-0.021402	-0.000897	0.067057	0.001647	0.161388	0.007991
0.477	-0.000129	-0.03201	-0.014107	-9.2e-05	0.080001	0.000528	0.037174	0.006771
0.4775	0.000896	-0.016132	-0.0108	0.000666	0.071602	-0.000567	-0.037217	0.003023
0.478	0.002981	-0.001927	-0.015381	0.00054	0.051998	-0.0026	-0.038533	0.000645
0.4785	0.004399	0.013045	-0.023642	-0.000644	0.036646	-0.005163	-0.02276	0.000577
0.479	0.00416	0.026485	-0.027312	-0.001525	0.029357	-0.005771	-0.031838	0.000503
0.4795	0.002922	0.031434	-0.022014	0.000245	0.024045	-0.004118	-0.04796	0.001157
0.48	0.001569	0.022572	-0.010795	0.002903	0.01777	-0.001638	-0.045162	0.004033
0.4805	0.000121	0.003051	-0.001326	0.003349	0.013014	-0.000242	-0.030608	0.006231
0.481	-0.000895	-0.015475	0.00205	0.00211	0.008253	-0.00125	-0.02071	0.005128
0.4815	-0.000157	-0.022336	0.00283	0.000761	-0.003968	-0.002606	-0.014753	0.003394
0.482	0.002999	-0.01711	0.005802	-0.000679	-0.023858	-0.001628	-0.005447	0.00413
0.4825	0.006792	-0.008351	0.010161	-0.002277	-0.035831	0.000737	0.006788	0.005616
0.483	0.007808	-0.002709	0.013031	-0.002921	-0.023173	0.002066	0.01819	0.005903
0.4835	0.005885	0.005397	0.015865	-0.002103	0.009379	0.001854	0.027885	0.006774
0.484	0.004291	0.025397	0.022473	-0.000907	0.035745	0.001365	0.036155	0.009633
0.4845	0.004328	0.051444	0.031308	-5.4e-05	0.035797	0.002107	0.041056	0.012139
0.485	0.004818	0.064456	0.034423	0.000524	0.016007	0.004129	0.038992	0.011969
0.4855	0.004417	0.053467	0.027371	0.000507	-0.002822	0.005517	0.029009	0.01188
0.486	0.002613	0.027022	0.016105	-0.000191	-0.006052	0.004475	0.014958	0.014817
0.4865	0.00113	0.004226	0.009882	-0.000994	0.009989	0.001448	0.003088	0.016509
0.487	0.00136	-0.002936	0.011631	-0.001612	0.035847	-0.000903	-0.003654	0.011129
0.4875	0.001153	0.000633	0.01751	-0.001518	0.051955	-0.000422	-0.009028	0.000935
0.488	-0.001296	0.001448	0.022316	-2e-05	0.048438	0.001794	-0.017796	-0.007055
0.4885	-0.004215	-0.005514	0.023792	0.00208	0.036825	0.002796	-0.029139	-0.011786
0.489	-0.006169	-0.011862	0.022668	0.003465	0.033371	0.001413	-0.039825	-0.017066
0.4895	-0.008217	-0.007832	0.020159	0.003697	0.03668	-0.00038	-0.051064	-0.022238
0.49	-0.010083	0.005513	0.016321	0.002842	0.029531	-0.00054	-0.066914	-0.024839
0.4905	-0.009486	0.019537	0.010797	0.001582	0.005389	0.00014	-0.085353	-0.02812
0.491	-0.005895	0.028477	0.004802	0.000477	-0.013397	0.000523	-0.097734	-0.03528
0.4915	-0.001235	0.030369	0.001146	-0.000238	0.004568	0.000599	-0.102107	-0.040585
0.492	0.001767	0.024475	0.001177	7.4e-05	0.061314	0.000493	-0.113735	-0.03638
0.4925	0.001615	0.014255	0.002354	0.000916	0.116505	0.001285	-0.146632	-0.025732
0.493	-0.000233	0.005394	0.001009	0.000991	0.112851	0.003464	-0.166885	-0.016907
0.4935	-0.001651	-1.8e-05	-0.002873	0.000685	0.022513	0.005916	-0.087184	-0.011362
0.494	-0.003123	-0.00242	-0.006378	0.000842	-0.118662	0.007931	0.132306	-0.00661
0.4945	-0.006069	-0.003205	-0.007245	0.00114	-0.229761	0.008349	0.374566	-0.001337
0.495	-0.00946	-0.005213	-0.005064	0.001679	-0.249897	0.005934	0.441441	0.005742
0.4955	-0.010202	-0.009899	-0.001811	0.002834	-0.181122	0.002021	0.278868	0.01434
0.496	-0.006855	-0.015219	-0.001198	0.002869	-0.070429	-0.001364	0.049723	0.021739
0.4965	-0.002449	-0.018043	-0.00548	0.000802	0.030918	-0.004302	-0.062138	0.027538
0.497	-0.000705	-0.017743	-0.012875	-0.000508	0.091431	-0.007248	-0.039053	0.034002
0.4975	-0.000494	-0.017026	-0.018818	0.000103	0.107525	-0.00898	0.023273	0.038662
0.498	0.00037	-0.018573	-0.019721	8.8e-05	0.096947	-0.00859	0.063416	0.035907
0.4985	0.000822	-0.02067	-0.015857	-0.000966	0.079665	-0.006699	0.078494	0.026882
0.499	0.000339	-0.018509	-0.011187	-0.000916	0.064279	-0.003748	0.065985	0.017393
0.4995	0.000286	-0.010286	-0.009356	0.00068	0.050678	-0.000226	0.019357	0.008602
0.5	0.000967	0.00061	-0.010297	0.002449	0.037772	0.002655	-0.045301	-0.002702
0.5005	0.001424	0.008315	-0.011819	0.003724	0.02339	0.003576	-0.106089	-0.018018
0.501	0.001006	0.008239	-0.013025	0.004055	0.003601	0.002268	-0.156538	-0.034456
0.5015	-0.000186	0.001656	-0.015036	0.002783	-0.019042	0.000546	-0.187586	-0.046013
0.502	-0.001259	-0.004222	-0.017984	0.00072	-0.029403	0.000716	-0.178221	-0.049874
0.5025	-0.001378	-0.006061	-0.019709	-0.000554	-0.012661	0.003568	-0.124737	-0.04867
0.503	-0.00099	-0.010308	-0.019766	-0.000337	0.024938	0.008405	-0.061823	-0.041478
0.5035	-0.000431	-0.022886	-0.020427	0.000537	0.056458	0.013399	-0.031778	-0.020881
0.504	0.001141	-0.038368	-0.021781	0.000545	0.059222	0.01632	-0.027793	0.015687
0.5045	0.003918	-0.046621	-0.020584	-0.000907	0.037864	0.016001	0.007116	0.056072
0.505	0.006002	-0.049917	-0.01505	-0.003088	0.01326	0.012139	0.097387	0.082159
0.5055	0.005217	-0.06186	-0.007117	-0.004405	-0.01137	0.005182	0.174176	0.08946
0.506	0.00209	-0.083549	5.9e-05	-0.003757	-0.049819	-0.002686	0.146539	0.08818
0.5065	-0.000599	-0.096947	0.004372	-0.001332	-0.093909	-0.009077	0.023694	0.086462
0.507	-0.001253	-0.086552	0.006387	0.000981	-0.106871	-0.011976	-0.091655	0.08256
0.5075	-0.001213	-0.055265	0.009471	0.000946	-0.071906	-0.010216	-0.130638	0.071607
0.507999999999999	-0.00186	-0.017282	0.014888	-0.000984	-0.021839	-0.005772	-0.123852	0.053025
0.508499999999999	-0.002204	0.016945	0.01897	-0.002877	0.000947	-0.001419	-0.136922	0.028517
0.508999999999999	-0.001721	0.042013	0.017781	-0.0026	-0.007336	0.001264	-0.184696	-0.001671
0.509499999999999	-0.001447	0.052849	0.011569	0.000454	-0.025366	0.001285	-0.215166	-0.036177
0.509999999999999	-0.001625	0.048381	0.004981	0.002657	-0.044271	0.00039	-0.151214	-0.071665
0.510499999999999	-0.001398	0.032102	0.003117	0.002094	-0.064645	0.001016	0.039392	-0.105988
0.510999999999999	1.2e-05	0.009645	0.005899	0.001957	-0.07584	0.002148	0.282668	-0.137068
0.511499999999999	0.001678	-0.008587	0.009567	0.003552	-0.068155	0.00307	0.42921	-0.158541
0.511999999999999	0.001159	-0.012071	0.012356	0.004346	-0.052001	0.005373	0.390644	-0.161607
0.512499999999999	-0.001909	-0.002392	0.013784	0.003501	-0.039223	0.007579	0.231995	-0.143969
0.512999999999999	-0.004275	0.010511	0.012397	0.00253	-0.021356	0.006453	0.092734	-0.113986
0.513499999999999	-0.003188	0.024289	0.007476	0.001856	0.009509	0.002941	0.036767	-0.080561
0.513999999999999	-0.000435	0.041281	0.000639	0.001801	0.036121	-0.000843	0.018949	-0.043953
0.514499999999999	0.00092	0.055178	-0.004391	0.002557	0.038926	-0.004117	-0.021184	-0.006489
0.514999999999999	0.001088	0.055837	-0.004218	0.002488	0.027444	-0.005305	-0.080412	0.01925
0.515499999999999	0.00133	0.044048	0.001175	0.001319	0.022752	-0.004833	-0.114167	0.025784
0.515999999999999	0.001483	0.033458	0.008075	0.000946	0.025538	-0.005203	-0.10941	0.021527
0.516499999999999	0.001772	0.033443	0.01167	0.001401	0.024074	-0.006201	-0.106109	0.019784
0.516999999999998	0.002451	0.033903	0.009306	0.001226	0.018332	-0.005765	-0.14161	0.027126
0.517499999999998	0.002032	0.020561	0.002675	0.001532	0.017839	-0.003696	-0.192782	0.042269
0.517999999999998	0.000797	0.002108	-0.002774	0.0031	0.024286	-0.001496	-0.194319	0.057547
0.518499999999998	0.002285	0.001392	-0.003557	0.002318	0.02882	-0.00036	-0.117963	0.064406
0.518999999999998	0.006959	0.020326	-0.002271	-0.001419	0.025145	-0.000635	-0.017753	0.065222
0.519499999999998	0.010468	0.035048	-0.003166	-0.003452	0.017099	-0.001819	0.019977	0.071789
0.519999999999998	0.009691	0.028133	-0.006049	-0.003102	0.010803	-0.003061	-0.026244	0.087384
0.520499999999998	0.005649	0.01	-0.00665	-0.002913	0.008829	-0.004415	-0.075608	0.10056
0.520999999999998	0.001886	0.002881	-0.002105	-0.003214	0.014729	-0.006509	-0.022845	0.09879
0.521499999999998	0.000803	0.010711	0.005722	-0.00392	0.031127	-0.008798	0.133708	0.082678
0.521999999999998	0.000712	0.016601	0.011776	-0.005351	0.050701	-0.008464	0.267386	0.062629
0.522499999999998	-0.00026	0.009749	0.011789	-0.006601	0.0588	-0.004012	0.264413	0.04354
0.522999999999998	-0.000277	-0.001612	0.006353	-0.006673	0.049842	0.000724	0.158343	0.021655
0.523499999999998	0.002403	-0.005239	-0.000132	-0.006448	0.034388	0.001883	0.065985	-0.00378
0.523999999999998	0.006143	0.001993	-0.004481	-0.006205	0.023163	0.001023	0.026536	-0.0257
0.524499999999998	0.008132	0.014377	-0.005586	-0.004702	0.012673	0.001253	-0.017238	-0.035797
0.524999999999998	0.007272	0.021394	-0.003489	-0.002842	-0.00428	0.002756	-0.098213	-0.030418
0.525499999999998	0.004144	0.016047	-0.000718	-0.002115	-0.022279	0.003616	-0.164953	-0.016211
0.525999999999997	-0.00019	0.003534	-0.000626	-0.001882	-0.028178	0.003186	-0.14582	-0.008981
0.526499999999997	-0.00364	-0.004048	-0.002949	-0.001574	-0.020099	0.003231	-0.022242	-0.014808
0.526999999999997	-0.003511	-0.001288	-0.004016	-0.001307	-0.015364	0.004546	0.152028	-0.022103
0.527499999999997	-0.000514	0.005952	-0.002101	-0.001056	-0.035591	0.004916	0.267955	-0.022664
0.527999999999997	0.000704	0.006713	0.000602	-0.000593	-0.077224	0.003175	0.234896	-0.024325
0.528499999999997	-0.001084	-0.003891	0.001313	0.000249	-0.10028	0.001169	0.080682	-0.035068
0.528999999999997	-0.002255	-0.019635	-0.001029	0.00097	-0.065875	-0.000405	-0.060476	-0.047771
0.529499999999997	-0.002412	-0.031987	-0.004634	0.001994	0.011988	-0.002843	-0.090456	-0.050292
0.529999999999997	-0.003871	-0.039124	-0.006154	0.004389	0.072131	-0.005788	-0.037698	-0.042963
0.530499999999997	-0.005325	-0.043904	-0.005029	0.006071	0.071374	-0.006739	0.010323	-0.035547
0.530999999999997	-0.004849	-0.048475	-0.003078	0.004411	0.027814	-0.004881	0.014287	-0.032294
0.531499999999997	-0.004067	-0.051891	-0.001442	0.001682	-0.011956	-0.002924	-0.005708	-0.028651
0.531999999999997	-0.004647	-0.052181	-0.000463	0.000633	-0.029004	-0.002466	-0.023916	-0.020544
0.532499999999997	-0.006259	-0.050231	-0.000274	0.000165	-0.035168	-0.001949	-0.032678	-0.008993
0.532999999999997	-0.00872	-0.046852	-0.000772	-6.9e-05	-0.038152	-0.00134	-0.032947	0.003155
0.533499999999997	-0.01084	-0.03603	-0.000502	0.000505	-0.030645	-0.001851	-0.034586	0.011494
0.533999999999997	-0.009682	-0.009885	0.002081	0.000746	-0.010413	-0.00258	-0.054215	0.013444
0.534499999999997	-0.00479	0.024816	0.005555	0.000703	0.008987	-0.002734	-0.090042	0.017321
0.534999999999996	0.000724	0.045032	0.006757	0.001435	0.013711	-0.002344	-0.110726	0.035926
0.535499999999996	0.004442	0.0365	0.004292	0.002408	0.006606	-0.000604	-0.08976	0.06384
0.535999999999996	0.006001	0.011316	0.000743	0.00246	0.000585	0.001507	-0.049276	0.076417
0.536499999999996	0.005149	-0.008037	0.000292	0.001344	0.00017	0.001316	-0.054525	0.060184
0.536999999999996	0.002348	-0.012431	0.002781	-0.000341	0.001009	0.000161	-0.145975	0.027545
0.537499999999996	-0.001131	-0.007217	0.004315	-0.001836	0.002063	0.002536	-0.266182	-0.004045
0.537999999999996	-0.004177	0.003206	0.00304	-0.002576	0.005168	0.00789	-0.278309	-0.032634
0.538499999999996	-0.004586	0.020267	0.00025	-0.003568	0.008017	0.010605	-0.104685	-0.065431
0.538999999999996	-0.001447	0.037999	-0.001904	-0.005728	0.006987	0.009077	0.157541	-0.098842
0.539499999999996	0.001962	0.041712	-0.00229	-0.006804	0.003314	0.006485	0.320728	-0.117312
0.539999999999996	0.002938	0.028089	-0.001972	-0.004937	0.001169	0.003861	0.306769	-0.11239
0.540499999999996	0.003219	0.011531	-0.002498	-0.001924	0.003401	0.000898	0.194196	-0.090676
0.540999999999996	0.004939	0.005601	-0.002984	-0.000119	0.010565	-0.000986	0.079493	-0.063918
0.541499999999996	0.006789	0.00907	-0.001488	0.000563	0.018259	-0.001303	-0.015312	-0.040973
0.541999999999996	0.007427	0.012785	0.000938	0.000921	0.019176	-0.000888	-0.09448	-0.02742
0.542499999999996	0.007844	0.01137	0.001307	0.000981	0.011753	-0.000511	-0.137829	-0.022951
0.542999999999996	0.007544	0.00581	0.000332	0.000857	0.001726	-0.00096	-0.125977	-0.019829
0.543499999999996	0.004792	0.000276	0.000926	0.000424	-0.003782	-0.001355	-0.06592	-0.011052
0.543999999999995	0.000411	-0.002311	0.001435	1.8e-05	-0.002087	-0.000261	0.026325	0.003776
0.544499999999995	-0.002917	-0.002093	-0.001448	0.000123	0.002721	0.000825	0.129015	0.021543
0.544999999999995	-0.003522	-0.00098	-0.006281	-3.8e-05	0.004782	-0.000211	0.197537	0.036475
0.545499999999995	-0.002105	-0.001067	-0.008755	-0.000725	0.002819	-0.001995	0.192634	0.039386
0.545999999999995	-0.00095	-0.002223	-0.006076	-0.000649	-0.001619	-0.001855	0.130242	0.025052
0.546499999999995	-0.002222	-0.001847	0.000102	0.001143	-0.007131	-5.7e-05	0.068193	0.00133
0.546999999999995	-0.00595	0.000436	0.004997	0.003561	-0.010874	0.002042	0.043564	-0.014369
0.547499999999995	-0.009649	0.001212	0.006079	0.00482	-0.010567	0.003556	0.043343	-0.008401
0.547999999999995	-0.011332	-0.001127	0.004313	0.004305	-0.008331	0.001853	0.033647	0.018418
0.548499999999995	-0.011184	-0.004207	0.001903	0.002802	-0.007787	-0.002895	0.001421	0.050286
0.548999999999995	-0.010292	-0.005785	0.000405	0.002384	-0.009813	-0.004591	-0.036618	0.068703
0.549499999999995	-0.009478	-0.00595	-0.000391	0.003407	-0.012676	-0.000545	-0.057626	0.067456
0.549999999999995	-0.008359	-0.006139	-0.000779	0.003839	-0.01351	0.003634	-0.056067	0.056795
0.550499999999995	-0.005786	-0.006672	-1.8e-05	0.00321	-0.009913	0.002186	-0.043674	0.051861
0.550999999999995	-0.00241	-0.006203	0.00112	0.002208	-0.00153	-0.003917	-0.034166	0.055616
0.551499999999995	-0.000768	-0.004681	0.000583	0.001307	0.008498	-0.008947	-0.030582	0.060619
0.551999999999995	-0.002188	-0.003349	-0.001241	0.001111	0.014178	-0.008492	-0.024812	0.065731
0.552499999999995	-0.004915	-0.002556	-0.002232	0.000483	0.01228	-0.003393	-0.009976	0.077558
0.552999999999994	-0.005437	-0.002008	-0.001539	-0.001831	0.007301	0.001345	0.007958	0.095147
0.553499999999994	-0.002432	-0.00203	-0.000186	-0.003536	0.008528	0.001533	0.015953	0.103147
0.553999999999994	0.001957	-0.003404	-0.000474	-0.002124	0.019875	-0.001951	0.010258	0.085794
0.554499999999994	0.005426	-0.004369	-0.003346	2.9e-05	0.033037	-0.00502	-0.000713	0.04402
0.554999999999994	0.007285	-0.002012	-0.006929	-0.000329	0.035486	-0.006117	-0.009469	-0.007079
0.555499999999994	0.00773	0.001974	-0.008922	-0.00182	0.025348	-0.006207	-0.016195	-0.054907
0.555999999999994	0.007381	0.003941	-0.007741	-0.002456	0.013087	-0.004441	-0.022252	-0.096534
0.556499999999994	0.006428	0.00335	-0.003177	-0.002101	0.00794	-0.000153	-0.025391	-0.127742
0.556999999999994	0.004824	0.001171	0.001809	-0.000183	0.008908	0.003997	-0.022781	-0.13479
0.557499999999994	0.003941	-0.001247	0.003184	0.002138	0.010498	0.006391	-0.015091	-0.108127
0.557999999999994	0.004703	-0.00247	0.000625	0.00283	0.010042	0.008518	-0.007144	-0.059694
0.558499999999994	0.00511	-0.002731	-0.001867	0.002099	0.00701	0.010502	-0.003859	-0.015706
0.558999999999994	0.003732	-0.00282	-0.001443	0.000239	0.000959	0.010562	-0.00682	0.008587
0.559499999999994	0.002542	-0.002166	0.000132	-0.002149	-0.007392	0.008333	-0.016495	0.020395
0.559999999999994	0.003195	-0.001311	0.000319	-0.003065	-0.01676	0.005229	-0.032151	0.03384
0.560499999999994	0.004284	-0.002316	-0.00058	-0.002181	-0.025497	0.003442	-0.048155	0.049399
0.560999999999994	0.003989	-0.004382	-0.000556	-0.001259	-0.029949	0.004012	-0.056978	0.055149
0.561499999999994	0.001933	-0.005057	0.000924	-0.000723	-0.029001	0.004738	-0.056323	0.045519
0.561999999999994	-0.000855	-0.004168	0.00188	1.3e-05	-0.026772	0.003821	-0.051594	0.027204
0.562499999999993	-0.002251	-0.002649	0.00106	-0.000332	-0.026331	0.002116	-0.054689	0.007455
0.562999999999993	-0.001459	-0.001016	1.5e-05	-0.002255	-0.027121	-0.000747	-0.079395	-0.008142
0.563499999999993	0.000245	0.00021	9.4e-05	-0.003199	-0.027469	-0.005342	-0.127312	-0.01089
0.563999999999993	0.002071	0.000251	-0.000334	-0.002017	-0.026437	-0.00953	-0.171853	0.001696
0.564499999999993	0.00432	-0.000984	-0.002776	-0.001212	-0.024835	-0.010813	-0.172954	0.017787
0.564999999999993	0.00591	-0.00242	-0.0046	-0.002024	-0.02323	-0.009051	-0.128168	0.025644
0.565499999999993	0.004878	-0.003208	-0.002085	-0.002293	-0.020228	-0.006149	-0.091503	0.031247
0.565999999999993	0.002404	-0.003674	0.003629	-0.001059	-0.01526	-0.003878	-0.10478	0.04938
0.566499999999993	0.001471	-0.004286	0.007681	0.001227	-0.01066	-0.002791	-0.117156	0.07905
0.566999999999993	0.002092	-0.004307	0.008236	0.004218	-0.008087	-0.002364	-0.024196	0.099795
0.567499999999993	0.002643	-0.002997	0.007575	0.005674	-0.005847	-0.001793	0.185179	0.096965
0.567999999999993	0.003415	-0.001103	0.007247	0.004833	-0.002773	-0.000321	0.359978	0.080725
0.568499999999993	0.005089	0.000136	0.006354	0.003445	-0.000327	0.003416	0.329507	0.068901
0.568999999999993	0.006452	-0.000224	0.003752	0.001523	0.001238	0.009306	0.11152	0.061756
0.569499999999993	0.005979	-0.001979	0.000909	-0.000378	0.005592	0.013873	-0.095079	0.048647
0.569999999999993	0.003762	-0.003243	0.000849	-0.00016	0.017369	0.013678	-0.143679	0.029981
0.570499999999993	0.001357	-0.002665	0.003116	0.0013	0.035244	0.009851	-0.086308	0.016959
0.570999999999993	0.000212	-0.001016	0.004454	0.001673	0.049731	0.006139	-0.053275	0.012267
0.571499999999992	0.000262	0.000318	0.003338	0.001835	0.050755	0.003372	-0.07958	0.005866
0.571999999999992	0.000555	0.001211	0.000418	0.003236	0.038097	0.000497	-0.11164	-0.007595
0.572499999999992	0.000439	0.001809	-0.002348	0.004453	0.022913	-0.002966	-0.097438	-0.018828
0.572999999999992	0.000223	0.001082	-0.002698	0.004087	0.015879	-0.00788	0.005578	-0.013015
0.573499999999992	0.000647	-0.000215	-0.000533	0.002847	0.016759	-0.013765	0.223716	0.015287
0.573999999999992	0.001726	0.000393	0.001304	0.001839	0.019105	-0.018776	0.471484	0.051992
0.574499999999992	0.002733	0.001127	0.000689	0.000747	0.019285	-0.021537	0.543505	0.069885
0.574999999999992	0.002001	-0.001366	-0.000458	-0.000822	0.017607	-0.020175	0.326039	0.054168
0.575499999999992	-0.001313	-0.004213	0.000802	-0.001477	0.01549	-0.013868	-0.026449	0.016468
0.575999999999992	-0.004516	-0.003056	0.003979	-0.000713	0.01389	-0.005362	-0.242019	-0.023903
0.576499999999992	-0.005002	-0.000234	0.006272	0.000579	0.013373	0.000525	-0.236365	-0.062574
0.576999999999992	-0.004207	9e-05	0.006417	0.001728	0.01456	0.001527	-0.156378	-0.10631
0.577499999999992	-0.003763	-0.000603	0.005412	0.001309	0.016988	0.001384	-0.130499	-0.153671
0.577999999999992	-0.003134	0.001007	0.005006	-1.8e-05	0.018324	0.005299	-0.114342	-0.189898
0.578499999999992	-0.002583	0.003996	0.006101	0.000527	0.017024	0.012419	-0.032501	-0.202035
0.578999999999992	-0.002571	0.005353	0.007102	0.002247	0.014169	0.01729	0.055344	-0.190636
0.579499999999992	-0.001878	0.004303	0.005957	0.002465	0.011297	0.017506	0.041681	-0.168376
0.579999999999992	-0.000514	0.002451	0.003409	0.000371	0.008843	0.015741	-0.04976	-0.152552
0.580499999999991	-0.000677	0.00097	0.000854	-0.002724	0.006892	0.014685	-0.096147	-0.149837
0.580999999999991	-0.002284	-0.000875	-0.001731	-0.004688	0.006035	0.014388	-0.045364	-0.146603
0.581499999999991	-0.003078	-0.003322	-0.003816	-0.005136	0.006867	0.014427	0.064137	-0.122916
0.581999999999991	-0.003429	-0.004936	-0.003823	-0.004573	0.008357	0.014142	0.206577	-0.075508
0.582499999999991	-0.004871	-0.004609	-0.001316	-0.00358	0.008314	0.011556	0.352485	-0.023384
0.582999999999991	-0.005914	-0.002311	0.002009	-0.003687	0.006311	0.005754	0.394189	0.010983
0.583499999999991	-0.004177	0.001111	0.004015	-0.004651	0.003673	-0.000556	0.246882	0.02415
0.583999999999991	-0.001133	0.003875	0.003479	-0.004212	0.001279	-0.004392	-0.000595	0.029047
0.584499999999991	-0.000586	0.005233	0.000592	-0.00266	-0.00022	-0.006371	-0.168872	0.033919
0.584999999999991	-0.002906	0.006085	-0.002772	-0.002351	-0.0015	-0.007772	-0.190968	0.036122
0.585499999999991	-0.004966	0.005765	-0.00533	-0.002282	-0.004983	-0.008443	-0.127709	0.03361
0.585999999999991	-0.004589	0.002946	-0.007381	-0.00017	-0.010122	-0.008435	-0.034191	0.028403
0.586499999999991	-0.002488	-0.000967	-0.009327	0.002112	-0.013516	-0.007561	0.07512	0.021536
0.586999999999991	-0.000923	-0.003123	-0.011716	0.002228	-0.015053	-0.005566	0.160244	0.014658
0.587499999999991	-0.001536	-0.001836	-0.014474	0.001102	-0.017014	-0.002989	0.159812	0.010987
0.587999999999991	-0.004097	0.00177	-0.016455	0.000175	-0.019151	-0.000585	0.070626	0.010968
0.588499999999991	-0.006316	0.004272	-0.018375	-0.000197	-0.020495	0	-0.031765	0.012295
0.588999999999991	-0.00681	0.003564	-0.024369	0.000142	-0.021984	-0.003352	-0.065256	0.013731
0.58949999999999	-0.00669	0.001548	-0.036676	0.001002	-0.023652	-0.009978	-0.017634	0.016039
0.58999999999999	-0.005988	0.001079	-0.05024	0.001432	-0.024012	-0.016033	0.043049	0.020366
0.59049999999999	-0.003987	0.001623	-0.05894	0.001089	-0.023603	-0.018252	0.030089	0.026692
0.59099999999999	-0.001921	0.001998	-0.063582	-0.000158	-0.023735	-0.01624	-0.069696	0.032288
0.59149999999999	-0.001116	0.002726	-0.065678	-0.002025	-0.023919	-0.012074	-0.172068	0.03427
0.59199999999999	-0.001375	0.003259	-0.059475	-0.002053	-0.023977	-0.008071	-0.194337	0.034017
0.59249999999999	-0.001022	0.002705	-0.03948	-2.6e-05	-0.024017	-0.004319	-0.155844	0.034384
0.59299999999999	0.001353	0.002118	-0.009553	0.000806	-0.023324	-0.000393	-0.135898	0.037415
0.59349999999999	0.004055	0.002661	0.021133	0.000436	-0.022219	0.002203	-0.158394	0.046803
0.59399999999999	0.004715	0.003589	0.045167	0.000796	-0.022037	0.002245	-0.175795	0.062688
0.59449999999999	0.003857	0.00378	0.059415	9.1e-05	-0.021916	0.00084	-0.157325	0.074179
0.59499999999999	0.002028	0.003261	0.063548	-0.002567	-0.01974	-0.000559	-0.137511	0.067909
0.59549999999999	-0.000796	0.002386	0.05792	-0.003782	-0.016916	-0.001366	-0.166253	0.043823
0.59599999999999	-0.001662	0.001413	0.043929	-0.002925	-0.015654	-0.000713	-0.237521	0.01734
0.59649999999999	0.000996	0.000167	0.02145	-0.002339	-0.015117	0.001303	-0.275929	0.007103
0.59699999999999	0.003139	-0.001514	-0.009759	-0.001031	-0.014789	0.002722	-0.203074	0.015351
0.59749999999999	0.002202	-0.002462	-0.038263	0.001764	-0.014951	0.00286	-0.043599	0.021388
0.59799999999999	0.001124	-0.001744	-0.045349	0.003659	-0.015001	0.002492	0.059016	0.006468
0.598499999999989	0.002407	-2.8e-05	-0.033995	0.004035	-0.014686	0.001518	0.003167	-0.022934
0.598999999999989	0.004445	0.001732	-0.037689	0.003496	-0.0139	0.000481	-0.112475	-0.048346
0.599499999999989	0.004102	0.002436	-0.082736	0.001135	-0.011992	0.001452	-0.090511	-0.063748
0.599999999999989	0.001083	0.001962	-0.146889	-0.002038	-0.00942	0.004804	0.114118	-0.075269
0.600499999999989	-0.001157	0.002279	-0.172135	-0.002955	-0.008151	0.008131	0.350233	-0.084389
0.600999999999989	0.000293	0.003165	-0.122478	-0.002073	-0.008179	0.010198	0.46391	-0.084479
0.601499999999989	0.004237	0.001294	-0.01989	-0.002258	-0.006857	0.011696	0.430472	-0.071746
0.601999999999989	0.006252	-0.002805	0.078582	-0.002921	-0.003065	0.011969	0.312813	-0.049213
0.602499999999989	0.003518	-0.004329	0.134812	-0.002424	0.001611	0.009966	0.187616	-0.022164
0.602999999999989	-0.001352	-0.001932	0.15892	-0.001842	0.004964	0.006592	0.108302	0.004551
0.603499999999989	-0.003226	0.001385	0.182096	-0.00199	0.005459	0.003342	0.080513	0.028922
0.603999999999989	-0.00069	0.003544	0.207139	-0.001972	0.003139	0.000626	0.075365	0.054167
0.604499999999989	0.002616	0.004845	0.207761	-0.00015	0.000311	-0.001809	0.077692	0.082329
0.604999999999989	0.003842	0.006401	0.180534	0.003391	0.000517	-0.00414	0.094292	0.10456
0.605499999999989	0.004064	0.007907	0.160738	0.005329	0.004147	-0.005864	0.1165	0.108063
0.605999999999989	0.004175	0.007058	0.16357	0.003585	0.006823	-0.00606	0.113348	0.092392
0.606499999999989	0.00319	0.003595	0.150951	2.1e-05	0.005565	-0.005259	0.07229	0.068137
0.606999999999989	0.000968	0.000833	0.091994	-0.001922	0.002723	-0.004595	0.02173	0.043818
0.607499999999988	-0.00085	0.0004	0.018062	-0.001037	0.00209	-0.003576	-0.0043	0.022754
0.607999999999988	-0.000972	0.000219	-0.019614	0.000465	0.004244	-0.002107	-0.00706	0.007493
0.608499999999988	-0.000772	-0.001444	-0.016434	0.001056	0.006813	-0.001283	-0.010983	7.7e-05
0.608999999999988	-0.002627	-0.004262	-0.004505	0.001654	0.007757	-0.001957	-0.027085	-0.001553
0.609499999999988	-0.005844	-0.007532	-5e-06	0.002724	0.006956	-0.004862	-0.045215	-0.003476
0.609999999999988	-0.006888	-0.010253	0.005629	0.00316	0.005969	-0.007925	-0.05367	-0.010417
0.610499999999988	-0.004404	-0.010812	0.015875	0.00302	0.005493	-0.007022	-0.053093	-0.020135
0.610999999999988	-0.001245	-0.009142	0.01963	0.00413	0.004257	-0.002863	-0.050573	-0.026006
0.611499999999988	6.5e-05	-0.006346	0.005646	0.005653	0.002798	0.000237	-0.049447	-0.026735
0.611999999999988	0.000225	-0.002914	-0.029897	0.004526	0.003931	0.002027	-0.048774	-0.025819
0.612499999999988	0.000539	-0.000517	-0.081036	0.001473	0.008364	0.004834	-0.047915	-0.022647
0.612999999999988	0.001249	-0.000976	-0.12566	6.8e-05	0.013266	0.007115	-0.048829	-0.014223
0.613499999999988	0.002357	-0.002701	-0.136991	0.000649	0.015768	0.00666	-0.054738	-0.003523
0.613999999999988	0.003544	-0.002919	-0.116372	0.001212	0.015495	0.005504	-0.06611	0.001773
0.614499999999988	0.004238	-0.000877	-0.093887	0.001287	0.013439	0.006149	-0.078244	-0.001119
0.614999999999988	0.004652	0.002474	-0.080661	0.000758	0.011396	0.007505	-0.084834	-0.007182
0.615499999999988	0.005241	0.004614	-0.052601	-0.000209	0.011097	0.006238	-0.083182	-0.009308
0.615999999999988	0.005642	0.004178	-0.001689	-0.000762	0.012329	0.001811	-0.076914	-0.005188
0.616499999999988	0.004539	0.0033	0.03536	-0.001462	0.013506	-0.001949	-0.074603	0.000446
0.616999999999987	0.000777	0.003962	0.026935	-0.002354	0.013895	-0.002281	-0.082655	0.002965
0.617499999999987	-0.0041	0.005831	-0.00704	-0.00225	0.014554	-0.000181	-0.100823	0.003905
0.617999999999987	-0.006691	0.007194	-0.025293	-0.00162	0.016065	0.001688	-0.121762	0.007764
0.618499999999987	-0.005298	0.005656	-0.018255	-0.001467	0.016614	0.001581	-0.125164	0.015881
0.618999999999987	-0.001418	0.000784	-0.007252	-0.002129	0.014554	0.000458	-0.083132	0.023374
0.619499999999987	0.001696	-0.004168	-0.007966	-0.003425	0.010846	0.00019	0.003233	0.0229
0.619999999999987	0.002934	-0.006149	-0.016554	-0.003323	0.00749	0.001457	0.079749	0.011983
0.620499999999987	0.003501	-0.006119	-0.025049	-0.000225	0.006901	0.003636	0.086232	-0.004057
0.620999999999987	0.003926	-0.005908	-0.034093	0.003089	0.011921	0.005277	0.028139	-0.017109
0.621499999999987	0.004414	-0.00502	-0.047135	0.002955	0.020849	0.004789	-0.030825	-0.022484
0.621999999999987	0.005011	-0.003187	-0.062267	-5.1e-05	0.026929	0.001127	-0.046203	-0.020783
0.622499999999987	0.005142	-0.002431	-0.075927	-0.003168	0.026601	-0.00376	-0.031145	-0.017069
0.622999999999987	0.004969	-0.004252	-0.087211	-0.004709	0.022296	-0.006236	-0.018934	-0.01447
0.623499999999987	0.004923	-0.00605	-0.092516	-0.0042	0.017556	-0.006013	-0.019747	-0.009988
0.623999999999987	0.004195	-0.004113	-0.08383	-0.001872	0.013332	-0.004626	-0.022633	-0.001249
0.624499999999987	0.002352	0.000578	-0.064162	0.000797	0.009702	-0.001116	-0.017772	0.008063
0.624999999999987	0.000952	0.004285	-0.057274	0.001845	0.007388	0.006165	-0.005121	0.013059
0.625499999999987	0.001485	0.005734	-0.082518	0.001208	0.005334	0.015601	0.00846	0.013793
0.625999999999986	0.003236	0.005893	-0.122055	0.000225	0.001982	0.022312	0.014531	0.014191
0.626499999999986	0.003764	0.004939	-0.132731	-1e-06	-0.002504	0.022248	0.010275	0.018394
0.626999999999986	0.001561	0.002825	-0.09318	-0.000183	-0.006744	0.017366	0.00212	0.027239
0.627499999999986	-0.001767	0.001332	-0.02347	-0.002165	-0.00897	0.013453	-0.000713	0.036152
0.627999999999986	-0.003785	0.00149	0.040866	-0.004412	-0.010193	0.010691	0.003153	0.041209
0.628499999999986	-0.004505	0.001843	0.076319	-0.004232	-0.012563	0.002386	0.006525	0.043734
0.628999999999986	-0.004975	0.001199	0.078422	-0.003014	-0.014183	-0.014648	0.001157	0.044089
0.629499999999986	-0.005017	-0.000339	0.060785	-0.002559	-0.012749	-0.031663	-0.020849	0.039535
0.629999999999986	-0.004366	-0.002383	0.044014	-0.002172	-0.009268	-0.033798	-0.062429	0.031597
0.630499999999986	-0.003341	-0.004375	0.036223	-0.001689	-0.004216	-0.017243	-0.103033	0.025716
0.630999999999986	-0.002074	-0.005294	0.029082	-0.001903	0.002189	0.003484	-0.100929	0.02132
0.631499999999986	-0.001109	-0.004612	0.016574	-0.002058	0.006445	0.010238	-0.039462	0.011915
0.631999999999986	-0.000957	-0.00355	0.008563	-0.000491	0.005647	0.001198	0.039245	-0.005953
0.632499999999986	-0.001465	-0.003254	0.015178	0.001627	0.002078	-0.008912	0.074567	-0.030211
0.632999999999986	-0.00283	-0.00297	0.026709	0.001976	0.000149	-0.008392	0.055077	-0.053959
0.633499999999986	-0.004385	-0.002132	0.025971	0.000912	0.001629	-0.000184	0.020417	-0.068414
0.633999999999986	-0.004604	-0.001527	0.015016	-0.000211	0.004118	0.006599	0.007201	-0.070957
0.634499999999986	-0.003336	-0.001683	0.015282	-0.000104	0.003436	0.007107	0.02093	-0.069019
0.634999999999985	-0.001349	-0.002023	0.041739	0.001576	-0.001288	0.001111	0.051401	-0.072415
0.635499999999985	0.000122	-0.001309	0.0844	0.002793	-0.006566	-0.0109	0.085884	-0.080684
0.635999999999985	-0.000711	0.000711	0.117624	0.002695	-0.00981	-0.026845	0.109576	-0.081565
0.636499999999985	-0.003684	0.002173	0.121123	0.002949	-0.012364	-0.038974	0.115789	-0.063562
0.636999999999985	-0.005118	0.001285	0.091762	0.003231	-0.015353	-0.038066	0.109219	-0.02976
0.637499999999985	-0.002743	-0.001008	0.04582	0.002521	-0.016565	-0.024914	0.090839	0.002858
0.637999999999985	0.000241	-0.002029	0.008824	0.00308	-0.014586	-0.011445	0.05902	0.020652
0.638499999999985	0.000603	-0.001047	-0.005165	0.005271	-0.012174	-0.006264	0.025347	0.024493
0.638999999999985	-0.000158	-0.000191	-0.002139	0.005366	-0.012344	-0.00478	0.007332	0.022848
0.639499999999985	0.000467	-0.000791	0.002879	0.002281	-0.014067	0.000929	0.006916	0.020899
0.639999999999985	0.001708	-0.001889	-0.003517	-0.001181	-0.013779	0.00919	0.010937	0.018925
0.640499999999985	0.001521	-0.002015	-0.029835	-0.002111	-0.009856	0.01289	0.010419	0.017396
0.640999999999985	0.000884	-0.000205	-0.070885	-0.00042	-0.004751	0.01066	0.007674	0.016875
0.641499999999985	0.001528	0.002418	-0.102561	0.001424	-0.002111	0.007937	0.005657	0.015426
0.641999999999985	0.00173	0.00381	-0.104599	0.002146	-0.002623	0.009153	0.001852	0.011565
0.642499999999985	-0.000322	0.004161	-0.090088	0.001613	-0.004575	0.012889	-0.004701	0.00632
0.642999999999985	-0.002667	0.004038	-0.089737	-5.1e-05	-0.006682	0.015774	-0.00916	0.002281
0.643499999999985	-0.002769	0.003096	-0.101152	-0.001236	-0.008098	0.016408	-0.00778	0.002151
0.643999999999984	-0.001513	0.001868	-0.083984	-0.000654	-0.00793	0.013665	-0.002611	0.007885
0.644499999999984	-0.000528	0.001253	-0.022142	0.000314	-0.006141	0.007277	0.003454	0.02123
0.644999999999984	0.001363	0.001255	0.043433	-0.000469	-0.004002	0.001278	0.00973	0.041359
0.645499999999984	0.003874	0.001052	0.068311	-0.002177	-0.003476	-0.000171	0.014425	0.061991
0.645999999999984	0.003651	0.000594	0.061003	-0.00289	-0.005016	0.000839	0.015975	0.074648
0.646499999999984	0.000974	0.001273	0.060565	-0.002529	-0.00519	0.001167	0.016701	0.076562
0.646999999999984	-0.000428	0.003176	0.080026	-0.000958	0.00138	0.002196	0.018171	0.072855
0.647499999999984	0.000415	0.004343	0.101705	0.001256	0.016577	0.004414	0.016992	0.067132
0.647999999999984	0.001637	0.00348	0.116028	0.001889	0.035841	0.005314	0.011046	0.056143
0.648499999999984	0.001489	0.001241	0.131781	0.000657	0.050749	0.005084	0.004772	0.037033
0.648999999999984	0.000457	-0.000695	0.150762	-8.8e-05	0.055551	0.006588	0.003578	0.012
0.649499999999984	0.001108	-0.001108	0.158547	0.000488	0.051667	0.010188	0.00879	-0.014762
0.649999999999984	0.003495	-5.5e-05	0.142389	0.00116	0.04463	0.01292	0.020811	-0.03953
0.650499999999984	0.003805	0.000865	0.104535	0.002024	0.03717	0.012358	0.036842	-0.060182
0.650999999999984	0.000568	3.8e-05	0.056387	0.002748	0.028905	0.011229	0.039931	-0.077588
0.651499999999984	-0.003229	-0.002553	0.008138	0.001913	0.021574	0.01405	0.008291	-0.092036
0.651999999999984	-0.00512	-0.005853	-0.033236	9.2e-05	0.016838	0.017917	-0.048151	-0.099329
0.652499999999984	-0.005024	-0.007758	-0.063877	-0.001542	0.008405	0.013844	-0.078204	-0.097674
0.652999999999983	-0.003677	-0.007079	-0.083669	-0.001771	-0.015407	-0.001738	-0.04252	-0.092129
0.653499999999983	-0.002077	-0.00553	-0.091972	-7.5e-05	-0.053744	-0.021248	0.028671	-0.082101
0.653999999999983	-0.001734	-0.004785	-0.084545	0.001514	-0.083413	-0.033334	0.058408	-0.053087
0.654499999999983	-0.003241	-0.004504	-0.057793	0.00116	-0.083865	-0.032101	0.010749	0.001973
0.654999999999983	-0.004689	-0.003618	-0.015375	-0.000762	-0.066325	-0.018658	-0.069527	0.058107
0.655499999999983	-0.004614	-0.001974	0.029637	-0.00174	-0.055301	-0.00073	-0.113983	0.077938
0.655999999999983	-0.003388	-0.000242	0.06274	-0.000496	-0.051102	0.011948	-0.103384	0.054215
0.656499999999983	-0.00186	0.002032	0.077781	0.00067	-0.037976	0.01651	-0.07294	0.01386
0.656999999999983	-0.001863	0.005655	0.073906	0.000492	-0.017096	0.017315	-0.062258	-0.018526
0.657499999999983	-0.003204	0.009642	0.054794	-0.000612	-0.003716	0.019431	-0.079693	-0.042583
0.657999999999983	-0.002937	0.011435	0.040341	-0.002107	-0.002062	0.023436	-0.111971	-0.062233
0.658499999999983	-0.000707	0.009678	0.056099	-0.001675	-0.00311	0.024156	-0.142306	-0.067457
0.658999999999983	0.001239	0.007124	0.092868	0.001607	-0.00038	0.017255	-0.152179	-0.052446
0.659499999999983	0.002047	0.007393	0.098699	0.004837	0.004201	0.00439	-0.130635	-0.031835
0.659999999999983	0.002359	0.008843	0.036853	0.006339	0.006877	-0.013041	-0.094038	-0.022036
0.660499999999983	0.002411	0.006794	-0.061844	0.006877	0.007028	-0.035713	-0.077973	-0.021474
0.660999999999983	0.001717	0.001556	-0.129333	0.005376	0.006736	-0.056813	-0.09486	-0.020079
0.661499999999983	-0.000298	-0.001942	-0.133562	0.001477	0.007647	-0.063284	-0.103223	-0.013565
0.661999999999982	-0.002948	-0.001569	-0.09816	-0.001673	0.009124	-0.051133	-0.030369	-0.003197
0.662499999999982	-0.003933	0.000684	-0.058515	-0.001967	0.010444	-0.030241	0.153248	0.008583
0.662999999999982	-0.00254	0.001378	-0.027856	-0.000593	0.011581	-0.012468	0.370266	0.02037
0.663499999999982	-0.000899	-0.002021	-0.005251	-0.000191	0.011618	-0.001578	0.475825	0.030208
0.663999999999982	-4.8e-05	-0.0069	0.009743	-0.001222	0.010221	0.005151	0.399978	0.035084
0.664499999999982	0.001789	-0.007156	0.017693	-0.00109	0.00935	0.010637	0.233888	0.035252
0.664999999999982	0.005231	-0.002339	0.020674	0.000674	0.010356	0.015001	0.128124	0.034564
0.665499999999982	0.007585	0.001727	0.015643	0.001974	0.011535	0.017436	0.123144	0.035163
0.665999999999982	0.006687	0.002021	-0.00606	0.002219	0.010806	0.018287	0.135114	0.03431
0.666499999999982	0.003543	0.000919	-0.04339	0.001972	0.008533	0.016924	0.090693	0.027922
0.666999999999982	0.000274	0.001959	-0.074845	0.001343	0.006975	0.011811	0.00607	0.017462
0.667499999999982	-0.001603	0.005757	-0.079152	-3.5e-05	0.007482	0.00491	-0.069429	0.009863
0.667999999999982	-0.001124	0.008278	-0.065518	-0.001897	0.00838	0.000219	-0.120786	0.009307
0.668499999999982	0.001472	0.00668	-0.063261	-0.003779	0.007223	-0.000118	-0.155319	0.012556
0.668999999999982	0.003489	0.003416	-0.081497	-0.005443	0.004447	0.003378	-0.174196	0.014132
0.669499999999982	0.002176	0.000348	-0.098925	-0.005456	0.00288	0.006629	-0.184678	0.012584
0.669999999999982	-0.000592	-0.002805	-0.095158	-0.004543	0.003523	0.006389	-0.202415	0.009282
0.670499999999982	-0.000846	-0.00463	-0.075926	-0.005632	0.004146	0.004024	-0.212992	0.006136
0.670999999999982	0.001093	-0.004028	-0.060061	-0.007629	0.003059	0.000777	-0.169019	0.00621
0.671499999999981	0.001692	-0.00316	-0.053662	-0.008088	0.000555	-0.003276	-0.062628	0.011343
0.671999999999981	-0.000467	-0.004734	-0.050838	-0.007551	-0.002227	-0.006329	0.034434	0.018389
0.672499999999981	-0.003133	-0.007988	-0.05074	-0.00647	-0.00359	-0.008211	0.046471	0.022039
0.672999999999981	-0.003305	-0.009692	-0.057144	-0.005205	-0.003048	-0.01156	-0.014235	0.020879
0.673499999999981	-0.000349	-0.008231	-0.065241	-0.005084	-0.001573	-0.01542	-0.062547	0.017003
0.673999999999981	0.003474	-0.005196	-0.06174	-0.005171	-0.000326	-0.014934	-0.031012	0.013398
0.674499999999981	0.00437	-0.003235	-0.038977	-0.003311	-0.000432	-0.008625	0.069726	0.012191
0.674999999999981	0.001056	-0.002855	-0.002745	-0.000138	-0.001306	-7.8e-05	0.163695	0.011943
0.675499999999981	-0.002701	-0.003181	0.0338	0.002534	-0.001057	0.006544	0.17455	0.011166
0.675999999999981	-0.002539	-0.003448	0.059979	0.00353	0.000386	0.010143	0.096288	0.011857
0.676499999999981	0.000954	-0.002044	0.072411	0.002338	0.001434	0.012518	0.001079	0.014777
0.676999999999981	0.00367	0.001437	0.073515	0.00089	0.000842	0.014392	-0.037592	0.016908
0.677499999999981	0.00375	0.004109	0.066968	0.001713	-0.00141	0.014272	-0.017795	0.015414
0.677999999999981	0.003586	0.003813	0.055223	0.004569	-0.003486	0.012654	0.009478	0.011297
0.678499999999981	0.00596	0.002344	0.041893	0.006509	-0.002876	0.012192	0.011921	0.007905
0.678999999999981	0.009083	0.001549	0.034631	0.005153	-0.000287	0.012697	0.001254	0.007112
0.679499999999981	0.00871	0.000673	0.035206	0.002611	0.000517	0.010768	-0.003062	0.007884
0.679999999999981	0.005321	-0.001125	0.027416	0.001918	-0.001432	0.005633	-0.002117	0.007909
0.68049999999998	0.002653	-0.003644	-0.003948	0.003246	-0.003001	0.001647	-0.004822	0.007126
0.68099999999998	0.001413	-0.005361	-0.043027	0.005357	-0.001959	0.003272	-0.009537	0.006198
0.68149999999998	3.5e-05	-0.00482	-0.056765	0.005178	-0.000179	0.009687	-0.008945	0.003503
0.68199999999998	-0.002301	-0.003561	-0.038913	0.002397	-0.000456	0.014519	-0.003827	-0.000994
0.68249999999998	-0.004777	-0.003409	-0.018755	0.001906	-0.001572	0.010511	-0.000817	-0.005747
0.68299999999998	-0.005848	-0.002991	-0.022205	0.004361	-0.000959	-0.004269	-0.001008	-0.011313
0.68349999999998	-0.005534	-0.001527	-0.040018	0.005502	0.000245	-0.023751	-0.001498	-0.016781
0.68399999999998	-0.004914	-0.001685	-0.043707	0.004742	-0.000265	-0.036987	-0.00158	-0.018012
0.68449999999998	-0.003482	-0.003997	-0.022535	0.003248	-0.002056	-0.034866	-0.001451	-0.014151
0.68499999999998	-0.000376	-0.004614	0.008347	0.000705	-0.003054	-0.017482	-0.001147	-0.009977
0.68549999999998	0.002341	-0.002237	0.033538	-0.001174	-0.002711	0.00356	-0.000667	-0.009133
0.68599999999998	0.00202	0.000986	0.059536	-0.000387	-0.002802	0.015289	-0.000217	-0.010754
0.68649999999998	-0.000397	0.00406	0.100439	0.001448	-0.003933	0.01563	-0.00113	-0.012719
0.68699999999998	-0.002634	0.005778	0.143944	0.001674	-0.004336	0.010599	-0.003945	-0.013414
0.68749999999998	-0.003971	0.004681	0.152787	6.7e-05	-0.003201	0.005268	-0.00708	-0.012436
0.68799999999998	-0.003675	0.002918	0.107552	-0.00175	-0.000894	0.002355	-0.009347	-0.011109
0.68849999999998	-0.001622	0.003852	0.03443	-0.002432	0.002317	0.002397	-0.011102	-0.010034
0.68899999999998	-9.5e-05	0.006148	-0.018099	-0.001942	0.005235	0.003211	-0.011968	-0.008224
0.689499999999979	-0.000156	0.006161	-0.026514	-0.002218	0.007199	0.002803	-0.011194	-0.006788
0.689999999999979	0.000224	0.003699	-0.007349	-0.004661	0.008987	0.000972	-0.010727	-0.00761
0.690499999999979	0.001831	0.000533	0.011449	-0.006368	0.008364	-0.001546	-0.012418	-0.008171
0.690999999999979	0.003099	-0.002063	0.018459	-0.00456	0.000891	-0.001592	-0.014188	-0.005653
0.691499999999979	0.003244	-0.003683	0.015937	-0.00152	-0.011503	0.005115	-0.014227	-0.002503
0.691999999999979	0.002952	-0.005381	0.005459	-0.001116	-0.020246	0.016653	-0.013817	-0.00196
0.692499999999979	0.002637	-0.00668	-0.012277	-0.003481	-0.019882	0.02293	-0.013755	-0.003346
0.692999999999979	0.001547	-0.005081	-0.029012	-0.004444	-0.013389	0.015825	-0.012415	-0.004561
0.693499999999979	-0.000469	-0.000969	-0.031643	-0.002841	-0.00755	0.000851	-0.008158	-0.004921
0.693999999999979	-0.002054	0.002232	-0.018982	-0.00235	-0.005307	-0.006772	-0.003185	-0.004943
0.694499999999979	-0.002149	0.00249	-0.007868	-0.003251	-0.004444	-0.000402	-0.002137	-0.005691
0.694999999999979	-0.000502	0.000958	-0.013849	-0.003333	-0.002231	0.010703	-0.00508	-0.007477
0.695499999999979	0.001618	0.000624	-0.03409	-0.002648	0.00139	0.016429	-0.006671	-0.00902
