Time	L_BF	L_GAL	L_TA	L_VL	R_BF	R_GAL	R_TA	R_VL
0	-0.042892	0.000952	-0.01726	0.016165	-0.002779	-0.026111	-0.004604	-0.001652
0.0005	-0.050493	0.000934	-0.030679	0.011469	-0.002318	-0.053164	-0.001745	-0.002331
0.001	-0.013844	0.005398	-0.048379	0.005367	-0.002887	-0.071719	-0.000353	-0.00412
0.0015	0.046702	0.012385	-0.080649	0.000603	-0.003925	-0.072557	0.000347	-0.006986
0.002	0.078563	0.018503	-0.125253	-0.001407	-0.00263	-0.064052	0.001882	-0.009933
0.0025	0.066586	0.022408	-0.156643	-0.003137	0.00086	-0.066632	0.003599	-0.0112
0.003	0.041816	0.022323	-0.153981	-0.008318	0.002248	-0.078717	0.003071	-0.009944
0.0035	0.035113	0.01667	-0.132736	-0.018567	2.8e-05	-0.072521	0.000169	-0.007793
0.004	0.045336	0.007942	-0.125908	-0.030481	-0.002929	-0.032418	-0.002407	-0.00682
0.0045	0.052976	0.00069	-0.137481	-0.039134	-0.004529	0.019418	-0.00302	-0.007028
0.005	0.048848	-0.00408	-0.136978	-0.043545	-0.004585	0.047847	-0.002436	-0.007776
0.0055	0.039573	-0.007605	-0.096565	-0.045132	-0.003212	0.044945	-0.001939	-0.008234
0.006	0.03312	-0.009942	-0.021934	-0.042689	-0.001667	0.029845	-0.001619	-0.005972
0.0065	0.031264	-0.009819	0.046677	-0.034588	-0.001249	0.017776	-0.000838	-0.001299
0.007	0.032454	-0.006709	0.069423	-0.024141	-0.001695	0.008069	0.000562	0.001481
0.0075	0.032902	-0.003522	0.056847	-0.015759	-0.002602	-0.002182	0.002006	0.001347
0.008	0.027469	-0.003049	0.064733	-0.010248	-0.003397	-0.009882	0.00254	0.001534
0.0085	0.014979	-0.003511	0.11197	-0.00676	-0.003286	-0.01304	0.002166	0.003164
0.009	0.000632	-0.002677	0.13774	-0.004827	-0.002099	-0.01464	0.001448	0.004122
0.0095	-0.008619	-0.001439	0.086501	-0.003787	-0.000446	-0.01678	-0.000167	0.00415
0.01	-0.007311	-0.000427	-0.003408	-0.002202	9e-06	-0.017835	-0.00222	0.004967
0.0105	0.006088	0.000955	-0.054141	0.000246	-0.001081	-0.016262	-0.002493	0.005907
0.011	0.023437	0.001765	-0.059059	0.00202	-0.001267	-0.013196	-0.001333	0.005975
0.0115	0.032264	0.001421	-0.075192	0.00112	0.001215	-0.010241	-0.00124	0.005435
0.012	0.030219	0.001385	-0.123262	-0.001982	0.004603	-0.007957	-0.002278	0.004546
0.0125	0.025014	0.002951	-0.160053	-0.00383	0.006	-0.007018	-0.003379	0.004295
0.013	0.02142	0.006217	-0.146263	-0.004703	0.004984	-0.006866	-0.005058	0.003539
0.0135	0.015826	0.009012	-0.087385	-0.007965	0.003269	-0.005591	-0.007457	0.001147
0.014	0.005498	0.008697	-0.007115	-0.011478	0.002095	-0.003603	-0.009217	0.001002
0.0145	-0.003667	0.006131	0.075988	-0.011668	0.001015	-0.002918	-0.009508	0.004463
0.015	-0.005542	0.004372	0.135967	-0.010307	-8.8e-05	-0.003337	-0.008643	0.006558
0.0155	-0.003559	0.004821	0.133771	-0.008684	-0.000425	-0.003108	-0.007157	0.005199
0.016	-0.004968	0.005977	0.052057	-0.005809	-0.000619	-0.001765	-0.005811	0.003413
0.0165	-0.009761	0.005877	-0.067025	-0.003663	-0.001156	-0.000838	-0.005451	0.002911
0.017	-0.012726	0.003995	-0.147221	-0.003456	-0.001128	-0.002161	-0.006695	0.003367
0.0175	-0.01256	0.000745	-0.153849	-0.002525	0.000138	-0.004634	-0.00859	0.004725
0.018	-0.011278	-0.002159	-0.119633	4.3e-05	0.003176	-0.004772	-0.008915	0.005567
0.0185	-0.009774	-0.003441	-0.08418	0.003019	0.006906	-0.002339	-0.008229	0.003741
0.019	-0.008507	-0.004082	-0.051166	0.005061	0.00803	-0.000611	-0.008339	-0.000162
0.0195	-0.008816	-0.005099	-0.033249	0.000471	0.005149	-0.000937	-0.008091	-0.003225
0.02	-0.012296	-0.005624	-0.075755	-0.018863	0.000513	-0.001758	-0.006415	-0.003073
0.0205	-0.018954	-0.004003	-0.165308	-0.049722	-0.002585	-0.001434	-0.004423	-0.000224
0.021	-0.025601	-0.001237	-0.179784	-0.072847	-0.002309	1.7e-05	-0.002418	0.001973
0.0215	-0.028458	-0.000613	-0.046261	-0.071475	0.000335	0.001875	0.000449	0.000954
0.022	-0.028121	-0.002943	0.100003	-0.046559	0.002505	0.004283	0.003428	-0.001895
0.0225	-0.027544	-0.006066	0.057779	-0.008589	0.002572	0.006843	0.004081	-0.003236
0.023	-0.026354	-0.007679	-0.164503	0.031394	0.001482	0.007659	0.000986	-0.002499
0.0235	-0.023265	-0.006505	-0.352553	0.061283	0.001117	0.00618	-0.004946	-0.001463
0.024	-0.020015	-0.002659	-0.347755	0.070937	0.001193	0.004628	-0.010956	-0.000969
0.0245	-0.018573	0.001452	-0.176838	0.060111	-0.000577	0.004371	-0.013489	-0.001424
0.025	-0.018977	0.002959	0.066878	0.040008	-0.003463	0.004473	-0.011079	-0.003489
0.0255	-0.020653	0.002296	0.337161	0.02268	-0.003379	0.0048	-0.006713	-0.005753
0.026	-0.022964	0.001751	0.599981	0.012805	0.000665	0.005906	-0.004242	-0.004881
0.0265	-0.025173	0.00177	0.784613	0.011817	0.005187	0.007185	-0.003724	-0.00161
0.027	-0.027186	0.000842	0.82411	0.020953	0.007015	0.007774	-0.002634	-0.001047
0.0275	-0.029895	-0.001954	0.706596	0.038224	0.006137	0.007744	0.000356	-0.00426
0.028	-0.033474	-0.00477	0.47222	0.057785	0.004653	0.008138	0.002935	-0.006956
0.0285	-0.035513	-0.005739	0.199274	0.074186	0.003738	0.009312	0.002088	-0.006219
0.029	-0.03315	-0.00561	-0.009917	0.086724	0.002884	0.010263	-0.000459	-0.004142
0.0295	-0.027035	-0.005007	-0.091969	0.095069	0.001488	0.010626	-0.001072	-0.004111
0.03	-0.020709	-0.003322	-0.0845	0.092547	-0.000347	0.0106	-0.000136	-0.005734
0.0305	-0.016302	-0.000351	-0.072292	0.07323	-0.001665	0.009882	-0.000269	-0.007258
0.031	-0.013691	0.003084	-0.076104	0.043865	-0.002055	0.008445	-0.001538	-0.008217
0.0315	-0.012595	0.005862	-0.057978	0.019383	-0.002399	0.006981	-0.001011	-0.007202
0.032	-0.012306	0.008442	-0.015741	0.007396	-0.003292	0.006769	0.002892	-0.004322
0.0325	-0.011953	0.010989	0.010346	0.004731	-0.004708	0.008397	0.006962	-0.003427
0.033	-0.011567	0.010472	0.012501	0.006148	-0.006202	0.010278	0.007192	-0.005755
0.0335	-0.010361	0.005168	0.016993	0.007235	-0.00662	0.010529	0.004071	-0.007242
0.034	-0.006718	-0.001393	0.016613	0.002476	-0.005591	0.009298	0.000899	-0.005674
0.0345	-0.002314	-0.004562	-0.024833	-0.009237	-0.004386	0.007319	0.000245	-0.003405
0.035	-0.001978	-0.003431	-0.099626	-0.021124	-0.003826	0.005106	0.003314	-0.002063
0.0355	-0.00613	-0.001069	-0.152497	-0.026928	-0.003247	0.004396	0.008653	-0.001826
0.036	-0.010004	-0.000426	-0.154294	-0.026841	-0.002839	0.005841	0.011396	-0.002694
0.0365	-0.010998	-0.000605	-0.129665	-0.026111	-0.004027	0.007019	0.009092	-0.003436
0.037	-0.0096	-0.000181	-0.111251	-0.029985	-0.005615	0.006392	0.005213	-0.003757
0.0375	-0.00726	-0.001536	-0.103407	-0.036348	-0.00473	0.004506	0.002746	-0.004001
0.038	-0.005438	-0.006	-0.094905	-0.039194	-0.002147	0.001012	0.001615	-0.003682
0.0385	-0.003944	-0.008873	-0.083274	-0.037296	-0.000103	-0.003626	0.001387	-0.00333
0.039	-0.002956	-0.005757	-0.074462	-0.032775	0.001426	-0.006206	0.000724	-0.003607
0.0395	-0.004142	0.000775	-0.070896	-0.027686	0.002406	-0.005271	-0.000156	-0.004492
0.04	-0.006781	0.005477	-0.072004	-0.023073	0.002638	-0.002896	0.001955	-0.006122
0.0405	-0.007485	0.006357	-0.079129	-0.017793	0.003155	-0.000336	0.006352	-0.007543
0.041	-0.005011	0.003825	-0.092593	-0.010054	0.003668	0.00219	0.008145	-0.005984
0.0415	-0.000885	-0.000318	-0.107526	-0.001379	0.00248	0.003699	0.006507	-0.001253
0.042	0.00295	-0.00259	-0.115046	0.004086	6e-06	0.003777	0.004163	0.001418
0.0425	0.003889	-0.001662	-0.107015	0.006312	-0.001672	0.002171	0.002026	-0.000212
0.043	5.6e-05	-0.000285	-0.078537	0.008136	-0.001144	-0.000554	0.000185	-0.001213
0.0435	-0.006653	-0.000965	-0.028448	0.008383	0.00084	-0.001701	0.000495	0.00128
0.044	-0.012018	-0.003128	0.034301	0.005335	0.001798	0.000517	0.004805	0.004951
0.0445	-0.014486	-0.005108	0.085955	0.001091	0.00155	0.00488	0.010949	0.007289
0.045	-0.015662	-0.006361	0.101904	-0.002206	0.00223	0.008567	0.013204	0.006732
0.0455	-0.015791	-0.007263	0.081114	-0.00429	0.003877	0.009598	0.00774	0.003449
0.046	-0.013897	-0.007914	0.050333	-0.005796	0.004106	0.007991	-0.003378	0.000482
0.0465	-0.011438	-0.007332	0.03827	-0.008881	0.00261	0.005331	-0.012791	-0.000347
0.047	-0.010992	-0.005306	0.05094	-0.016197	0.002357	0.004074	-0.014211	0.000134
0.0475	-0.012696	-0.004602	0.071158	-0.029219	0.004091	0.004751	-0.009115	0.002174
0.048	-0.014734	-0.007934	0.07214	-0.049648	0.005518	0.005358	-0.003184	0.006132
0.0485	-0.016211	-0.014155	0.040077	-0.078436	0.005663	0.005255	0.001688	0.011253
0.049	-0.016333	-0.018794	-0.008212	-0.109384	0.00524	0.005211	0.006329	0.016128
0.0495	-0.013522	-0.017909	-0.043602	-0.126879	0.005622	0.005133	0.009	0.01782
0.05	-0.008811	-0.011788	-0.06073	-0.117224	0.006947	0.00537	0.007407	0.015668
0.0505	-0.005318	-0.004462	-0.076852	-0.08448	0.007168	0.006735	0.003297	0.013362
0.051	-0.00414	-0.000828	-0.097925	-0.047191	0.005733	0.007802	0.000194	0.01433
0.0515	-0.003989	-0.003274	-0.109607	-0.016781	0.004776	0.006635	-0.000563	0.017639
0.052	-0.002909	-0.009621	-0.105623	0.010889	0.004624	0.004944	-0.000244	0.019138
0.0525	-7.9e-05	-0.014824	-0.102059	0.041794	0.002573	0.005609	-0.001728	0.018047
0.053	0.003282	-0.014264	-0.109684	0.07332	-0.001116	0.008006	-0.005962	0.017288
0.0535	0.005106	-0.007834	-0.108781	0.098653	-0.002607	0.008753	-0.009826	0.016972
0.054	0.004867	0.000393	-0.072829	0.112268	-0.001288	0.005831	-0.009858	0.015336
0.0545	0.004629	0.009569	-0.008668	0.111616	0.000652	0.001545	-0.006197	0.013079
0.055	0.006064	0.021627	0.047473	0.098697	0.002272	-0.000425	-0.001984	0.012699
0.0555	0.008655	0.030725	0.06256	0.079121	0.003769	0.000586	0.000437	0.014221
0.056	0.011274	0.026031	0.013173	0.060302	0.005158	0.003313	0.001108	0.014414
0.0565	0.011664	0.008964	-0.117382	0.049061	0.005691	0.00542	0.000418	0.013484
0.057	0.008151	-0.004745	-0.309188	0.045333	0.005758	0.004298	-0.001713	0.014412
0.0575	0.003482	-0.003882	-0.493538	0.040613	0.006564	0.001045	-0.003973	0.015038
0.058	0.001226	0.006041	-0.616527	0.028057	0.007573	-0.001043	-0.003422	0.011912
0.0585	0.000655	0.013913	-0.683685	0.011319	0.007529	-0.001387	-8e-06	0.007403
0.059	-0.000491	0.018576	-0.676084	-0.000159	0.005987	-0.001055	0.002767	0.005142
0.0595	-0.002504	0.023938	-0.468881	-0.000667	0.003412	-0.000594	0.003474	0.004266
0.06	-0.004749	0.027395	0.040757	0.007763	0.000828	-0.000906	0.003013	0.002563
0.0605	-0.006103	0.02484	0.703995	0.015754	-0.000393	-0.002863	0.002458	-9.2e-05
0.061	-0.005792	0.018957	1.133785	0.015355	0.000101	-0.005211	0.003969	-0.002217
0.0615	-0.004603	0.014509	1.04854	0.009818	0.000355	-0.0054	0.008262	-0.001361
0.062	-0.002464	0.012252	0.580976	0.007159	-0.001084	-0.003547	0.012615	0.00175
0.0625	0.001522	0.010211	0.154063	0.009866	-0.002887	-0.002407	0.013725	0.001843
0.063	0.00516	0.006446	0.042671	0.016287	-0.003493	-0.002852	0.009323	-0.003059
0.0635	0.004892	0.000596	0.156018	0.023492	-0.004081	-0.003437	0.000176	-0.009023
0.064	0.001459	-0.005126	0.256677	0.025664	-0.006525	-0.003354	-0.00785	-0.014651
0.0645	-0.001532	-0.00741	0.242408	0.01839	-0.009013	-0.002796	-0.009451	-0.022839
0.065	-0.003481	-0.005866	0.160753	0.005807	-0.00801	-0.002154	-0.007048	-0.032354
0.0655	-0.005447	-0.002962	0.083987	-0.005057	-0.003973	-0.001076	-0.008463	-0.038233
0.066	-0.006129	-0.00053	0.045612	-0.012867	-0.000911	0.001114	-0.019494	-0.038756
0.0665	-0.004306	0.000229	0.033671	-0.019007	-0.001381	0.003118	-0.039648	-0.035947
0.067	-0.000904	-0.000564	0.015755	-0.023281	-0.004009	0.002873	-0.061428	-0.034226
0.0675	0.002686	-0.000737	-0.007198	-0.025436	-0.005614	0.00088	-0.072464	-0.036423
0.068	0.00493	-0.000619	-0.000397	-0.026344	-0.004883	-0.000632	-0.064486	-0.038578
0.0685	0.004679	-0.002565	0.034969	-0.025997	-0.002888	-0.000488	-0.0465	-0.035411
0.069	0.003072	-0.005076	0.04929	-0.023731	-0.000931	0.00152	-0.043416	-0.028579
0.0695	0.002515	-0.006067	0.018719	-0.020385	0.000466	0.004064	-0.075915	-0.022992
0.07	0.003796	-0.007339	-0.02587	-0.017452	0.000964	0.003886	-0.144024	-0.020301
0.0705	0.006028	-0.009641	-0.051074	-0.016217	0.000714	0.000578	-0.225714	-0.01941
0.071	0.00717	-0.010845	-0.054956	-0.016547	0.000457	-0.001909	-0.283475	-0.018177
0.0715	0.005308	-0.009867	-0.04936	-0.016248	0.000475	-0.000615	-0.280002	-0.015637
0.0720000000000001	0.002872	-0.008151	-0.04217	-0.014095	0.001649	0.003007	-0.20783	-0.013286
0.0725000000000001	0.004371	-0.0083	-0.037956	-0.011033	0.004972	0.005239	-0.09865	-0.011645
0.0730000000000001	0.008265	-0.010094	-0.038453	-0.009089	0.008177	0.004874	0.024869	-0.009315
0.0735000000000001	0.009808	-0.010142	-0.040808	-0.009659	0.00726	0.004303	0.182976	-0.006072
0.0740000000000001	0.009486	-0.007183	-0.041169	-0.011523	0.00164	0.005607	0.36863	-0.003763
0.0745000000000001	0.009444	-0.003406	-0.039804	-0.011893	-0.00464	0.007108	0.479432	-0.003382
0.0750000000000001	0.008175	-0.00127	-0.040036	-0.009978	-0.007336	0.006267	0.41484	-0.002851
0.0755000000000001	0.005518	-0.001167	-0.043307	-0.008209	-0.006432	0.0056	0.224877	-0.000933
0.0760000000000001	0.004407	-0.001245	-0.048172	-0.007866	-0.005025	0.008886	0.064015	0.000598
0.0765000000000001	0.005321	-0.000456	-0.052382	-0.007073	-0.005194	0.013603	0.006866	0.000926
0.0770000000000001	0.005881	-6.8e-05	-0.054169	-0.004804	-0.005843	0.01507	0.001884	0.000928
0.0775000000000001	0.005061	-0.000581	-0.053229	-0.002629	-0.005342	0.013025	-0.000861	0.001635
0.0780000000000001	0.004365	-0.001208	-0.051013	-0.002736	-0.004638	0.009158	0.026018	0.003845
0.0785000000000001	0.004906	-0.002005	-0.048744	-0.004437	-0.005391	0.003812	0.113051	0.006428
0.0790000000000001	0.005342	-0.002691	-0.046087	-0.004755	-0.007145	-0.002964	0.216635	0.007008
0.0795000000000001	0.00416	-0.001909	-0.04253	-0.00366	-0.008158	-0.009682	0.262362	0.005743
0.0800000000000001	0.002023	0.000341	-0.038023	-0.002853	-0.008243	-0.013725	0.2368	0.005431
0.0805000000000001	0.000384	0.002028	-0.03291	-0.001943	-0.008174	-0.014731	0.188784	0.006906
0.0810000000000001	-0.000811	0.001565	-0.028503	-0.001206	-0.007398	-0.014906	0.14421	0.007456
0.0815000000000001	-0.002152	1.2e-05	-0.025993	-0.002819	-0.005354	-0.014763	0.072446	0.004939
0.0820000000000001	-0.002954	-0.000436	-0.024697	-0.006233	-0.002939	-0.013486	-0.050068	0.001207
0.0825000000000001	-0.002059	0.000417	-0.022469	-0.007932	-0.002023	-0.011533	-0.194102	-0.00025
0.0830000000000001	0.00044	0.001453	-0.018282	-0.007679	-0.003579	-0.009139	-0.317335	0.000633
0.0835000000000001	0.002103	0.001571	-0.014647	-0.007396	-0.006079	-0.006604	-0.408365	0.001656
0.0840000000000001	0.001141	-6.4e-05	-0.014957	-0.00597	-0.006881	-0.00536	-0.469229	0.002663
0.0845000000000001	-0.000186	-0.001885	-0.018253	-0.003413	-0.004458	-0.00466	-0.486785	0.004538
0.0850000000000001	3.8e-05	-0.002002	-0.020854	-0.00192	-0.000237	-0.002604	-0.449835	0.007807
0.0855000000000001	0.000718	-0.001495	-0.020999	-0.001654	0.002284	-0.000298	-0.376795	0.011759
0.0860000000000001	0.001494	-0.000951	-0.018627	-0.002609	0.001909	0.00011	-0.28376	0.013352
0.0865000000000001	0.00251	0.000131	-0.014905	-0.004534	0.000889	-0.00242	-0.128318	0.011549
0.0870000000000001	0.0029	0.000266	-0.011815	-0.005601	0.001526	-0.006904	0.140963	0.009968
0.0875000000000001	0.002398	-0.001299	-0.00963	-0.005462	0.003672	-0.009699	0.447968	0.011153
0.0880000000000001	0.001934	-0.002836	-0.007741	-0.00574	0.005179	-0.008591	0.590477	0.012387
0.0885000000000001	0.002234	-0.00318	-0.005908	-0.00678	0.003837	-0.005304	0.4529	0.011067
0.0890000000000001	0.002501	-0.002021	-0.003238	-0.006713	-6.7e-05	-0.002948	0.161982	0.009545
0.0895000000000001	0.001777	0.000389	-0.000166	-0.00438	-0.002695	-0.003105	-0.040703	0.010171
0.0900000000000001	0.000289	0.00225	0.001397	-0.000339	-0.000999	-0.005122	-0.049312	0.01215
0.0905000000000001	-0.001531	0.002757	0.001578	0.003555	0.002672	-0.007321	0.034735	0.013596
0.0910000000000001	-0.00348	0.003114	0.002236	0.004601	0.003833	-0.00814	0.057626	0.012917
0.0915000000000001	-0.005325	0.003849	0.003975	0.002957	0.001706	-0.007426	-0.012433	0.011529
0.0920000000000001	-0.006574	0.004537	0.005464	0.001418	-0.000904	-0.006416	-0.076086	0.012138
0.0925000000000001	-0.00695	0.004599	0.006364	0.000542	-0.001816	-0.005261	-0.038428	0.014
0.0930000000000001	-0.007027	0.00316	0.008879	-0.001217	-0.001246	-0.002271	0.080188	0.014013
0.0935000000000001	-0.006705	0.00028	0.013589	-0.003562	0.000352	0.003477	0.176638	0.011215
0.0940000000000001	-0.004633	-0.001574	0.017233	-0.004178	0.003313	0.010509	0.187075	0.008166
0.0945000000000001	-0.001576	-0.00034	0.017197	-0.002568	0.006759	0.015829	0.147747	0.007377
0.0950000000000001	-0.001177	0.001533	0.015061	0.00029	0.008139	0.016093	0.127417	0.00934
0.0955000000000001	-0.004546	0.000776	0.013819	0.004169	0.006214	0.01039	0.133623	0.012568
0.0960000000000001	-0.008041	-0.001549	0.013997	0.007431	0.00321	0.002639	0.121725	0.013797
0.0965000000000001	-0.007989	-0.003168	0.014693	0.007695	0.002082	-0.001839	0.073869	0.010788
0.0970000000000001	-0.004669	-0.003626	0.015821	0.006056	0.002856	-0.001939	0.019402	0.004937
0.0975000000000001	-0.00142	-0.00321	0.017908	0.0051	0.003262	-0.000791	-0.01816	0.00077
0.0980000000000001	-0.000494	-0.002585	0.02151	0.0042	0.002202	-0.000696	-0.049281	0.000232
0.0985000000000001	-0.001209	-0.001783	0.026599	0.002879	0.000868	-0.001031	-0.087324	0.000411
0.0990000000000001	-0.002356	-0.000343	0.031704	0.003022	0.000731	-0.001274	-0.119252	-0.000159
0.0995000000000001	-0.004198	0.000629	0.033844	0.003885	0.002198	-0.002132	-0.117075	0.000328
0.1	-0.007553	-0.000332	0.031321	0.003271	0.00333	-0.002844	-0.070386	0.002621
0.1005	-0.010636	-0.003013	0.026878	0.001158	0.001389	-0.001683	-0.005738	0.004641
0.101	-0.010323	-0.006323	0.023978	-0.000873	-0.002338	0.000202	0.028855	0.004797
0.1015	-0.007507	-0.008421	0.022397	-0.001247	-0.003606	0.000184	0.006284	0.004347
0.102	-0.00599	-0.006979	0.020838	-0.000763	-0.001434	-0.001782	-0.052254	0.004106
0.1025	-0.007449	-0.002001	0.017631	-0.000192	0.000434	-0.003263	-0.099915	0.003914
0.103	-0.010539	0.003359	0.010482	0.001254	-0.000905	-0.001295	-0.111999	0.004272
0.1035	-0.012999	0.006002	0.000502	0.002476	-0.003184	0.004126	-0.10053	0.003991
0.104	-0.013281	0.00643	-0.009369	0.002502	-0.002606	0.008806	-0.087057	0.001639
0.1045	-0.011238	0.007529	-0.019881	0.002512	0.00051	0.009578	-0.078063	-0.000184
0.105	-0.007482	0.009339	-0.033776	0.002216	0.003446	0.007432	-0.068834	0.000983
0.1055	-0.002548	0.008949	-0.052987	0.000836	0.005105	0.004167	-0.056972	0.002774
0.106	0.000827	0.005238	-0.08322	7.6e-05	0.004845	0.000257	-0.04384	0.002976
0.1065	-0.000837	0.000605	-0.130823	0.000514	0.003245	-0.003233	-0.029752	0.001548
0.107	-0.005047	-0.001056	-0.177531	0.000867	0.002833	-0.00432	-0.014732	-0.001778
0.1075	-0.005252	0.002015	-0.170907	0.002626	0.003051	-0.003126	-0.00142	-0.005124
0.108	0.000399	0.007541	-0.077869	0.00792	0.001444	-0.001931	0.006863	-0.005721
0.1085	0.008293	0.010624	0.052114	0.014325	-0.001205	-0.001466	0.009282	-0.003864
0.109	0.014512	0.007907	0.120828	0.016738	-0.003034	-0.001091	0.006292	-0.001758
0.1095	0.017195	0.001913	0.090519	0.014011	-0.003557	-0.00098	-0.001715	-0.000556
0.11	0.017678	-0.001687	0.022599	0.011305	-0.00272	-0.000945	-0.011824	0.000429
0.1105	0.018891	-0.001101	-0.005291	0.012425	-0.000774	-1e-05	-0.017762	0.000617
0.111	0.020389	0.000678	0.016004	0.015148	0.000784	0.001806	-0.015121	-0.001872
0.1115	0.01996	0.000619	0.042731	0.017052	0.000517	0.002946	-0.008236	-0.005876
0.112	0.018315	-0.001149	0.045648	0.017183	-0.000401	0.002527	-0.011372	-0.008554
0.1125	0.01664	-0.002388	0.033454	0.014876	-0.000333	0.001688	-0.038493	-0.009371
0.113	0.014712	-0.001179	0.024091	0.012172	-0.000744	0.00114	-0.086876	-0.009096
0.1135	0.011914	0.002013	0.02155	0.011179	-0.003535	3.9e-05	-0.132383	-0.008058
0.114	0.007207	0.004622	0.02184	0.010366	-0.006554	-0.002099	-0.145908	-0.007295
0.1145	0.00141	0.005011	0.023578	0.007011	-0.00583	-0.004807	-0.120834	-0.007941
0.115	-0.003076	0.003473	0.026233	0.000808	-0.001248	-0.007217	-0.085853	-0.008568
0.1155	-0.005454	0.001327	0.026993	-0.00509	0.00301	-0.007884	-0.073675	-0.007428
0.116	-0.005822	5e-05	0.025421	-0.007338	0.003574	-0.00579	-0.069573	-0.005647
0.1165	-0.004202	0.000366	0.024518	-0.005946	0.001521	-0.00199	-0.027525	-0.004481
0.117	-0.000623	0.00179	0.024855	-0.002771	0.000244	0.001811	0.046737	-0.003911
0.1175	0.004639	0.002627	0.024398	0.000231	0.001811	0.005455	0.085862	-0.004454
0.118	0.00854	0.001564	0.021449	0.001853	0.005054	0.009097	0.06601	-0.005634
0.1185	0.006621	-0.001001	0.014129	0.003521	0.005952	0.011791	0.057687	-0.004649
0.119	0.000347	-0.003563	0.00215	0.00655	0.003062	0.013029	0.119769	-0.001064
0.1195	-0.002627	-0.005013	-0.010784	0.009388	0.000164	0.013312	0.201696	0.001057
0.12	0.002062	-0.005693	-0.019764	0.011163	0.000341	0.012648	0.212898	0.00047
0.1205	0.01132	-0.006228	-0.023142	0.0116	0.002562	0.010758	0.139091	-7.6e-05
0.121	0.01875	-0.006995	-0.023334	0.00956	0.003665	0.007766	0.038126	-0.000385
0.1215	0.019687	-0.008259	-0.025076	0.006822	0.001797	0.004032	-0.032275	-0.00071
0.122	0.015099	-0.008825	-0.034499	0.006569	-0.000648	0.000766	-0.044872	0.000569
0.1225	0.009411	-0.007469	-0.054839	0.008744	0.000424	-0.001282	-0.004392	0.002465
0.123	0.00293	-0.005308	-0.078582	0.011001	0.005538	-0.003207	0.048313	0.002518
0.1235	-0.007664	-0.004104	-0.089669	0.011701	0.010228	-0.005658	0.063824	0.001252
0.124	-0.020551	-0.004243	-0.078913	0.01024	0.00991	-0.007598	0.039343	-0.000241
0.1245	-0.029218	-0.005434	-0.05548	0.005184	0.005506	-0.007682	0.024588	-0.001893
0.125	-0.030388	-0.007293	-0.039545	-0.003632	0.001449	-0.006012	0.057982	-0.002628
0.1255	-0.024343	-0.00793	-0.042154	-0.012994	0.000854	-0.004081	0.1139	-0.003006
0.126	-0.01335	-0.005987	-0.056715	-0.019132	0.003321	-0.003147	0.131576	-0.004233
0.1265	-0.00163	-0.00398	-0.071675	-0.020385	0.005626	-0.003819	0.088255	-0.00407
0.127	0.008139	-0.003462	-0.07917	-0.018427	0.005899	-0.004961	0.017318	-0.001334
0.1275	0.014818	-0.00179	-0.066057	-0.015964	0.004713	-0.00479	-0.043466	0.001154
0.128	0.016451	0.002143	-0.013864	-0.013342	0.002763	-0.00434	-0.087763	0.001272
0.1285	0.012751	0.005657	0.080828	-0.010131	0.001146	-0.00487	-0.118892	6.4e-05
0.129	0.007284	0.007276	0.194162	-0.008644	0.001152	-0.004382	-0.123892	-0.001863
0.1295	0.00389	0.008255	0.28584	-0.011317	0.002305	-0.001648	-0.091193	-0.004904
0.13	0.002312	0.009052	0.31756	-0.015597	0.002758	0.000769	-0.041106	-0.006305
0.1305	-0.000239	0.009649	0.276269	-0.017875	0.001959	0.00092	-0.009337	-0.003637
0.131	-0.004838	0.010509	0.197154	-0.017868	0.000977	0.000114	0.006176	0.000509
0.1315	-0.009359	0.010597	0.14291	-0.01685	-5e-05	0.000217	0.051319	0.002565
0.132	-0.010725	0.008852	0.135876	-0.015625	-0.001759	0.001498	0.144945	0.001556
0.1325	-0.008698	0.006326	0.13355	-0.011687	-0.003599	0.00281	0.229302	-0.000622
0.133	-0.006406	0.00452	0.09244	-0.002516	-0.005093	0.003316	0.227716	-0.000162
0.1335	-0.006501	0.00377	0.020368	0.007702	-0.006525	0.003226	0.134356	0.002854
0.134	-0.007685	0.003271	-0.054997	0.011715	-0.007187	0.00304	0.013975	0.002887
0.1345	-0.007677	0.001638	-0.120762	0.007782	-0.006205	0.002519	-0.074524	-0.0006
0.135	-0.006835	-0.001475	-0.160962	0.000754	-0.004591	0.000581	-0.126275	-0.00167
0.1355	-0.005257	-0.004542	-0.152209	-0.004772	-0.003938	-0.002363	-0.166204	-0.000529
0.136	-0.003225	-0.005931	-0.099	-0.00814	-0.00409	-0.003707	-0.202401	-0.002178
0.1365	-0.003158	-0.005499	-0.042133	-0.00948	-0.00387	-0.001859	-0.218169	-0.005174
0.137	-0.004523	-0.003673	-0.016422	-0.008711	-0.003428	0.001326	-0.203267	-0.005413
0.1375	-0.00414	-0.001065	-0.019831	-0.008226	-0.003865	0.002295	-0.179182	-0.005026
0.138	-0.002071	0.00165	-0.031588	-0.012969	-0.004553	-7e-05	-0.181818	-0.007805
0.1385	-0.000653	0.005026	-0.039676	-0.025093	-0.003686	-0.003368	-0.212509	-0.010802
0.139	-0.001281	0.008621	-0.043803	-0.039421	-0.001327	-0.004645	-0.206525	-0.009498
0.1395	-0.003284	0.01011	-0.047279	-0.048077	0.000925	-0.002848	-0.075092	-0.006535
0.14	-0.00371	0.008741	-0.051021	-0.048861	0.00147	0.000789	0.177415	-0.005869
0.1405	-0.000688	0.005062	-0.051312	-0.045751	-0.000518	0.003991	0.395073	-0.005429
0.141	0.003464	-0.000458	-0.045231	-0.04116	-0.003077	0.00549	0.405677	-0.003096
0.1415	0.005098	-0.006079	-0.040765	-0.031695	-0.003734	0.005287	0.220366	-0.001577
0.142	0.003389	-0.010335	-0.056195	-0.014435	-0.004231	0.003468	0.023399	-0.002641
0.1425	0.000228	-0.014756	-0.101339	0.007915	-0.006807	0.000489	-0.046628	-0.00347
0.143	-0.00225	-0.020363	-0.162414	0.029886	-0.009154	-0.001483	-0.026442	-0.001572
0.1435	-0.003864	-0.024759	-0.214532	0.046592	-0.009284	-0.000774	-0.021638	0.001778
0.144	-0.005659	-0.025388	-0.249756	0.055078	-0.008708	0.000376	-0.054387	0.003855
0.1445	-0.006787	-0.020877	-0.285726	0.054071	-0.007232	-0.00029	-0.062477	0.003162
0.145	-0.005881	-0.011262	-0.340245	0.044546	-0.003598	-0.001283	0.000438	0.001371
0.1455	-0.00471	0.000601	-0.40024	0.031722	-0.000368	-0.001738	0.105499	0.001732
0.146	-0.005746	0.010164	-0.424753	0.021119	-0.000522	-0.002539	0.175412	0.003546
0.1465	-0.007815	0.013857	-0.372498	0.013424	-0.00262	-0.002509	0.160048	0.003454
0.147	-0.007844	0.01235	-0.21321	0.008231	-0.003207	0.000215	0.086931	0.001847
0.1475	-0.004687	0.009761	0.057721	0.005799	-0.001749	0.004195	0.027921	0.001271
0.148	0.000861	0.007898	0.367439	0.00249	-0.000532	0.00619	0.020531	0.00149
0.1485	0.005955	0.005767	0.568481	-0.004877	-0.001118	0.005037	0.039221	0.001628
0.149	0.006862	0.003127	0.577582	-0.012727	-0.003208	0.001909	0.041626	0.002134
0.1495	0.004265	0.000145	0.485689	-0.015487	-0.004639	-0.000926	0.02129	0.002499
0.15	0.002204	-0.002741	0.446048	-0.009867	-0.003501	-0.00179	0.00173	0.00292
0.1505	0.001704	-0.003112	0.478066	0.003232	-0.0011	-0.000629	-0.006906	0.004927
0.151	0.001229	0.000564	0.462652	0.017202	0.001022	0.001879	-0.022462	0.00727
0.1515	0.000294	0.004279	0.315239	0.026536	0.003416	0.004802	-0.061842	0.007626
0.152	-0.000886	0.001985	0.092234	0.03194	0.005357	0.007438	-0.111315	0.006746
0.1525	-0.002872	-0.00517	-0.077777	0.035347	0.005047	0.009004	-0.13431	0.005881
0.153	-0.005747	-0.009525	-0.12356	0.035835	0.003121	0.00815	-0.108725	0.004399
0.1535	-0.007945	-0.007981	-0.076153	0.032422	0.001822	0.004548	-0.051914	0.002994
0.154	-0.00752	-0.00413	-0.009667	0.026244	0.002412	0.000493	-0.005793	0.003102
0.1545	-0.003524	-0.001795	0.02608	0.018231	0.00423	-0.000986	0.002558	0.003341
0.155	0.001905	-0.001862	0.018141	0.008812	0.004873	-0.000637	-0.021581	0.002795
0.1555	0.004931	-0.00066	-0.013637	-0.000776	0.00316	-0.00126	-0.061531	0.001825
0.156	0.005444	0.005527	-0.028707	-0.008467	0.000977	-0.002887	-0.103892	-5.4e-05
0.1565	0.005675	0.013322	-0.015322	-0.011479	-5.3e-05	-0.004572	-0.123929	-0.000943
0.157	0.005766	0.016948	-0.007657	-0.009563	-0.000102	-0.005999	-0.088322	0.001328
0.1575	0.005728	0.016422	-0.025775	-0.006953	0.001445	-0.006498	0.004535	0.004215
0.158	0.006537	0.015707	-0.051567	-0.007182	0.004613	-0.005726	0.103757	0.004479
0.1585	0.00676	0.015948	-0.085557	-0.008682	0.005982	-0.004398	0.143613	0.00349
0.159	0.004367	0.014749	-0.155975	-0.008499	0.003645	-0.003993	0.100177	0.00355
0.1595	0.000944	0.010223	-0.242967	-0.007003	0.000869	-0.004649	0.007768	0.003278
0.16	-0.001076	0.002613	-0.262918	-0.00576	-8.6e-05	-0.004926	-0.072646	0.002127
0.1605	-0.000564	-0.004974	-0.169448	-0.00492	-0.000277	-0.004264	-0.094065	0.001726
0.161	0.001989	-0.008174	-0.023254	-0.003953	4e-06	-0.003151	-0.049256	0.001225
0.1615	0.003506	-0.006322	0.07813	-0.002579	0.000519	-0.002031	0.019566	0.000125
0.162	0.002991	-0.002171	0.105692	-0.001778	0.000379	-0.001466	0.044804	0.000535
0.1625	0.002642	0.001894	0.092479	-0.002639	0.000457	-0.00219	-0.007573	0.002805
0.163	0.0025	0.004079	0.057762	-0.004258	0.001701	-0.003205	-0.103086	0.00473
0.1635	0.001161	0.002792	-0.000192	-0.004865	0.003395	-0.002592	-0.170536	0.004649
0.164	-0.000541	-0.001801	-0.056077	-0.004073	0.005733	-0.001679	-0.156355	0.003285
0.1645	-0.000788	-0.006852	-0.069297	-0.002878	0.00879	-0.002416	-0.048537	0.002638
0.165	0.000607	-0.00903	-0.042953	-0.002315	0.00973	-0.003004	0.11441	0.002982
0.1655	0.002237	-0.008312	-0.019315	-0.004118	0.007272	-0.001441	0.238282	0.002115
0.166	0.002378	-0.008212	-0.017028	-0.012432	0.0052	0.00128	0.227661	-0.00079
0.1665	0.000318	-0.011036	-0.017065	-0.030995	0.006189	0.003099	0.090017	-0.002469
0.167	-0.002565	-0.013825	-0.00572	-0.058209	0.007296	0.003042	-0.052683	-0.000425
0.1675	-0.003629	-0.011551	0.007445	-0.08599	0.005249	0.001636	-0.092197	0.003028
0.168	-0.001824	-0.00368	0.01232	-0.103218	0.001442	0.000454	-0.04001	0.004437
0.1685	0.001046	0.005175	0.012765	-0.104914	-0.000748	0.000238	0.017768	0.003096
0.169	0.002329	0.0099	0.014044	-0.095545	-0.000641	-0.000793	0.031876	0.001213
0.1695	0.001298	0.009844	0.011557	-0.07965	-0.000131	-0.003555	0.020751	0.000906
0.17	-0.000155	0.008458	-0.001316	-0.056987	-0.000189	-0.005771	0.01575	0.000734
0.1705	-0.000591	0.006902	-0.02346	-0.027439	7.3e-05	-0.006331	0.021155	-0.001799
0.171	-0.000989	0.003029	-0.045755	0.004963	0.001235	-0.006142	0.023688	-0.005341
0.1715	-0.00163	-0.002842	-0.057074	0.034016	0.002308	-0.004816	0.006079	-0.006493
0.172	-0.001063	-0.00699	-0.053808	0.056962	0.002181	-0.002433	-0.0419	-0.004715
0.1725	5.4e-05	-0.007088	-0.044097	0.075432	0.001045	-0.000977	-0.097784	-0.001901
0.173	-0.00024	-0.00404	-0.040769	0.089231	-0.000318	-0.000474	-0.1123	-6.1e-05
0.1735	-0.000933	0.000206	-0.048892	0.095391	-0.001374	0.000534	-0.07422	7.1e-05
0.174	-0.000152	0.003879	-0.056227	0.09483	-0.002185	0.000968	-0.043698	0.000106
0.1745	0.002241	0.005872	-0.037527	0.091217	-0.002615	7.7e-05	-0.079549	-0.000171
0.175	0.005296	0.006143	0.021078	0.086161	-0.001768	-0.000439	-0.154459	-0.003888
0.1755	0.006444	0.004678	0.096736	0.080702	-0.000554	0.000109	-0.183304	-0.009303
0.176	0.004322	0.000975	0.140569	0.074056	-0.001485	0.001242	-0.119216	-0.010268
0.1765	0.001748	-0.003607	0.126865	0.061361	-0.004166	0.002587	0.010391	-0.006432
0.177	0.001434	-0.005694	0.081348	0.040477	-0.005564	0.002973	0.141686	-0.003558
0.1775	0.002292	-0.005127	0.047228	0.01795	-0.004354	0.001587	0.215636	-0.003969
0.178	0.002724	-0.005105	0.035622	0.001585	-0.002071	0.000373	0.204504	-0.005124
0.1785	0.002718	-0.006526	0.02362	-0.007563	-0.001538	0.001782	0.138147	-0.005614
0.179	0.001799	-0.007509	-0.004842	-0.011746	-0.003979	0.004805	0.091528	-0.006058
0.1795	0.000622	-0.006518	-0.031492	-0.013454	-0.006837	0.007325	0.112411	-0.007495
0.18	0.001437	-0.003409	-0.027893	-0.014908	-0.007099	0.009624	0.171503	-0.009493
0.1805	0.003146	0.00055	-0.001527	-0.015494	-0.005947	0.012176	0.199065	-0.008631
0.181	0.00255	0.002428	0.003827	-0.014212	-0.006387	0.013584	0.153135	-0.003692
0.1815	0.000508	0.000291	-0.037167	-0.012569	-0.008083	0.012671	0.048404	0.001141
0.182	0.000131	-0.003118	-0.098059	-0.011596	-0.008524	0.009814	-0.060745	0.003223
0.1825	0.001031	-0.003409	-0.135974	-0.010965	-0.006995	0.005588	-0.121897	0.004006
0.183	0.001241	2.1e-05	-0.138057	-0.011498	-0.004783	0.001256	-0.126624	0.003173
0.1835	0.00117	0.003713	-0.119409	-0.013452	-0.003937	-0.000974	-0.113999	0.000339
0.184	0.00155	0.003703	-0.094224	-0.014529	-0.005207	-0.001466	-0.117444	-0.001092
0.1845	0.001922	0.000843	-0.06224	-0.013823	-0.00612	-0.002643	-0.11665	-0.000209
0.185	0.002432	-0.000172	-0.016743	-0.012748	-0.003806	-0.00494	-0.071806	-0.000151
0.1855	0.003508	0.001474	0.041777	-0.011953	0.000436	-0.007579	0.006686	-0.001596
0.186	0.004213	0.002912	0.101787	-0.012109	0.002603	-0.009763	0.065298	-0.002173
0.1865	0.004018	0.003226	0.148457	-0.013433	0.001963	-0.010097	0.076573	-0.00031
0.187	0.003738	0.003188	0.172725	-0.012976	0.00137	-0.008406	0.059751	0.002867
0.1875	0.003177	0.003468	0.17438	-0.008804	0.002159	-0.006301	0.039228	0.004279
0.188	0.002149	0.00454	0.158845	-0.004823	0.00347	-0.00426	0.021003	0.001769
0.1885	0.00144	0.005232	0.129838	-0.004346	0.004276	-0.001293	0.006383	-0.002126
0.189	0.001094	0.003283	0.085655	-0.005315	0.003927	0.001621	-0.001239	-0.002562
0.1895	0.001398	-0.000655	0.028361	-0.006263	0.003219	0.002706	-0.007016	-0.000388
0.19	0.002357	-0.003374	-0.026356	-0.007719	0.003289	0.003004	-0.02666	0.000246
0.1905	0.00181	-0.003574	-0.06029	-0.008862	0.003848	0.003531	-0.067982	-0.000363
0.191	-0.001954	-0.001717	-0.070291	-0.009025	0.004028	0.003058	-0.118071	-0.000128
0.1915	-0.006688	0.001607	-0.065594	-0.008546	0.00291	0.000879	-0.158779	0.001385
0.192	-0.008308	0.004504	-0.053725	-0.007644	0.001346	-0.001513	-0.184858	0.003706
0.1925	-0.006402	0.004745	-0.035943	-0.006817	0.001605	-0.001706	-0.198463	0.004891
0.193	-0.003883	0.002234	-0.012624	-0.006283	0.002477	8.8e-05	-0.195514	0.003727
0.1935	-0.002608	-0.000959	0.013098	-0.005621	0.001382	0.000939	-0.165697	0.002021
0.194	-0.002495	-0.003166	0.035331	-0.004861	-0.000441	-6.7e-05	-0.102096	0.001886
0.1945	-0.002436	-0.004794	0.045158	-0.00399	-0.00109	-0.000924	-0.003563	0.002908
0.195	-0.001405	-0.006309	0.034456	-0.003052	-0.000997	-0.000417	0.129294	0.003474
0.1955	0.000215	-0.006803	0.001354	-0.003259	-0.000993	0.000663	0.281123	0.00331
0.196	0.001176	-0.005889	-0.051684	-0.004649	-0.001094	0.001879	0.395104	0.003493
0.1965	0.000904	-0.004738	-0.121055	-0.005264	-0.000891	0.003364	0.391058	0.004358
0.197	0.000175	-0.003985	-0.199077	-0.004672	-0.000495	0.003535	0.252284	0.003891
0.1975	-0.000249	-0.002983	-0.272431	-0.003137	-0.000712	0.000963	0.078361	0.001732
0.198	-0.00072	-0.001507	-0.325456	-0.000492	-0.001321	-0.002105	-0.003821	0.001411
0.1985	-0.000846	4e-06	-0.345572	0.000765	-0.000973	-0.00279	0.024629	0.003154
0.199	-0.000369	0.000952	-0.331009	-0.001539	-0.000635	-0.001153	0.078492	0.003228
0.1995	-0.000804	0.001367	-0.293495	-0.005261	-0.00233	0.002118	0.08493	0.000923
0.2	-0.001903	0.002504	-0.247791	-0.008076	-0.004077	0.006509	0.041506	-0.001699
0.2005	-0.001767	0.005122	-0.189342	-0.0097	-0.00262	0.009731	-0.016472	-0.003162
0.201	-0.001042	0.008011	-0.074965	-0.008798	0.000781	0.008871	-0.055293	-0.003002
0.2015	-0.000882	0.009448	0.151601	-0.003938	0.002159	0.003563	-0.05945	-0.00161
0.202	0.000201	0.009341	0.474554	0.002035	0.000636	-0.002861	-0.038307	-0.000208
0.2025	0.002651	0.008338	0.750564	0.004971	-0.001389	-0.006541	-0.016663	0.000889
0.203	0.004448	0.00644	0.793568	0.004792	-0.002381	-0.007155	-0.009978	0.002502
0.2035	0.004861	0.004121	0.553994	0.002341	-0.002677	-0.006788	-0.011673	0.003734
0.204	0.003889	0.002112	0.191966	-0.001292	-0.002783	-0.006431	-0.008279	0.003919
0.2045	0.001967	0.000434	-0.064981	-0.001614	-0.001875	-0.005216	0.000102	0.00414
0.205	0.00135	-0.00123	-0.12365	0.00231	0.000628	-0.002198	-0.000309	0.003961
0.2055	0.002059	-0.003466	-0.05829	0.002445	0.002715	0.001448	-0.020275	0.002743
0.206	0.00137	-0.006146	0.021924	-0.007499	0.002953	0.00316	-0.058121	0.001228
0.2065	-0.000594	-0.007387	0.071321	-0.022242	0.002773	0.002317	-0.105268	-0.000992
0.207	-0.001221	-0.005572	0.069301	-0.031811	0.00354	0.000961	-0.145643	-0.004308
0.2075	-6.6e-05	-0.002301	-0.021916	-0.032501	0.004619	0.001	-0.150497	-0.005736
0.208	0.001393	-0.000936	-0.175805	-0.029303	0.004347	0.002751	-0.097772	-0.003284
0.2085	0.00203	-0.002253	-0.251008	-0.028869	0.002199	0.004437	-0.00885	-0.00074
0.209	0.001176	-0.003194	-0.147921	-0.029836	-0.00068	0.003173	0.049434	-0.00139
0.2095	-0.000679	0.00023	0.03299	-0.0255	-0.002036	-0.00041	0.021665	-0.00383
0.21	-0.001906	0.007718	0.113382	-0.013476	-0.000442	-0.002654	-0.078981	-0.005402
0.2105	-0.001566	0.014381	0.070543	0.003266	0.001727	-0.002115	-0.180726	-0.004815
0.211	-1.2e-05	0.017162	0.025042	0.02048	0.001819	-0.000454	-0.210713	-0.003246
0.2115	0.001424	0.01609	0.042488	0.035136	0.001535	-0.000314	-0.138785	-0.002013
0.212	0.001722	0.011283	0.08641	0.045153	0.002786	-0.001543	0.009162	-0.001263
0.2125	0.00119	0.004053	0.137981	0.049907	0.003426	-0.001082	0.157627	-0.0014
0.213	0.000706	-0.002514	0.208367	0.051485	0.001341	0.001002	0.220644	-0.00222
0.2135	0.000379	-0.006629	0.234982	0.051247	-0.001382	0.001178	0.168921	-0.002776
0.214	-0.000902	-0.009373	0.124515	0.048529	-0.002225	-0.001481	0.058053	-0.00223
0.2145	-0.003131	-0.011342	-0.073513	0.044562	-0.001316	-0.003873	-0.026351	-0.00092
0.215	-0.005286	-0.01153	-0.176385	0.041195	0.001127	-0.003287	-0.045968	-0.000175
0.2155	-0.007586	-0.011581	-0.092724	0.036296	0.004786	-0.000944	-0.02435	0.000344
0.216	-0.009737	-0.015674	0.072734	0.02638	0.007642	0.000282	-0.001874	0.001308
0.2165	-0.010701	-0.024538	0.173997	0.012271	0.00772	0.000266	0.004662	0.000528
0.217	-0.010505	-0.032946	0.183039	-0.001541	0.005065	0.000915	0.002701	-0.003222
0.2175	-0.010128	-0.035168	0.153297	-0.010793	0.002239	0.002703	0.002861	-0.005514
0.218	-0.009791	-0.030693	0.109259	-0.013888	0.002205	0.004678	0.005983	-0.002954
0.2185	-0.008041	-0.022784	0.02599	-0.011963	0.003845	0.00544	0.005358	0.000479
0.219	-0.005269	-0.01355	-0.112366	-0.008049	0.003266	0.004094	-0.003043	0.000835
0.2195	-0.003933	-0.002224	-0.262464	-0.005833	0.000354	0.001902	-0.013485	2.6e-05
0.22	-0.003744	0.011146	-0.343655	-0.005647	-0.001885	0.000578	-0.016424	0.001157
0.2205	-0.002314	0.0234	-0.320215	-0.004962	-0.001805	0.000268	-0.009888	0.002562
0.221	0.000371	0.030858	-0.239003	-0.003742	0.000464	-0.000481	-0.00023	0.000271
0.2215	0.001805	0.032592	-0.158309	-0.003448	0.002415	-0.003358	0.005963	-0.003674
0.222	0.000545	0.031703	-0.070905	-0.004291	0.001619	-0.007012	0.005861	-0.0037
0.2225	-0.002017	0.030891	0.049308	-0.006051	0.000419	-0.008199	-0.00038	-3.2e-05
0.223	-0.003523	0.027449	0.143755	-0.007551	0.001449	-0.006883	-0.009609	0.002738
0.2235	-0.003857	0.018258	0.095243	-0.006951	0.002448	-0.005772	-0.017681	0.003104
0.224	-0.004376	0.006851	-0.110977	-0.005171	0.0016	-0.005341	-0.024646	0.002645
0.2245	-0.004669	-0.001149	-0.32687	-0.004877	0.000375	-0.004044	-0.034002	0.001693
0.225	-0.004318	-0.005795	-0.40561	-0.004905	-0.000359	-0.002573	-0.04161	0.000224
0.2255	-0.004513	-0.010073	-0.366747	-0.002935	-0.00077	-0.002654	-0.028285	-0.00057
0.226	-0.005475	-0.013555	-0.328915	-0.001194	-0.001152	-0.003356	0.023251	2.7e-05
0.2265	-0.00618	-0.013061	-0.337331	-0.002076	-0.001779	-0.002475	0.093246	0.001435
0.227	-0.006094	-0.008053	-0.339558	-0.004338	-0.002348	0.000439	0.125844	0.002454
0.2275	-0.005412	-0.001863	-0.284793	-0.005967	-0.002951	0.003547	0.09327	0.002535
0.228	-0.004365	0.003325	-0.16685	-0.006844	-0.003734	0.005185	0.041259	0.002106
0.2285	-0.003042	0.007549	-0.004417	-0.009479	-0.003903	0.005963	0.038833	0.001579
0.229	-0.001833	0.010483	0.154588	-0.015108	-0.003083	0.006991	0.092035	0.00105
0.2295	-0.000549	0.013075	0.240991	-0.021344	-0.002108	0.008518	0.133175	0.00053
0.23	0.001566	0.01697	0.240582	-0.026148	-0.001777	0.009921	0.101241	7.1e-05
0.2305	0.003155	0.020763	0.241435	-0.028534	-0.002056	0.009842	0.013943	0.00022
0.231	0.001997	0.021633	0.333479	-0.028183	-0.002156	0.007324	-0.056838	0.001221
0.2315	-0.000345	0.018353	0.463539	-0.027474	-0.000588	0.002988	-0.067403	0.001637
0.232	-0.000574	0.010879	0.474852	-0.028098	0.002305	-9.8e-05	-0.038689	0.000847
0.2325	0.001109	0.000906	0.30884	-0.027686	0.002747	-0.000311	-0.019608	0.001002
0.233	0.003085	-0.007499	0.08518	-0.024527	-0.000899	-0.000663	-0.035165	0.002254
0.2335	0.004842	-0.011259	-0.043434	-0.019213	-0.00479	-0.002634	-0.066047	0.001948
0.234	0.005293	-0.011076	-0.045289	-0.010819	-0.005541	-0.00394	-0.069529	0.000957
0.2345	0.005021	-0.008903	0.007108	0.001313	-0.004133	-0.003778	-0.02889	0.001331
0.235	0.006019	-0.005835	0.045887	0.015676	-0.003636	-0.00349	0.02005	0.001699
0.2355	0.007099	-0.002911	0.057273	0.029997	-0.005378	-0.004473	0.024481	0.001486
0.236	0.006217	0.000474	0.0549	0.041221	-0.006175	-0.006129	-0.027612	0.001505
0.2365	0.004575	0.006542	0.048683	0.047549	-0.002663	-0.005846	-0.093793	0.001053
0.237	0.004707	0.012483	0.04162	0.050201	0.002615	-0.003475	-0.117054	-0.000251
0.2375	0.006341	0.008601	0.035527	0.05076	0.004463	-0.00146	-0.075519	-0.000751
0.238	0.007477	-0.009786	0.032019	0.047793	0.002002	-0.000493	0.000606	0.00025
0.2385	0.008175	-0.033728	0.03249	0.038712	-0.000928	-0.000866	0.058277	0.000774
0.239	0.009046	-0.049593	0.037034	0.025072	-0.00182	-0.002907	0.072232	0.000416
0.2395	0.009951	-0.051533	0.042749	0.011671	-0.001502	-0.00363	0.059637	0.000398
0.24	0.010393	-0.043683	0.046302	0.002382	-0.000629	-0.00141	0.042181	0.000857
0.2405	0.009094	-0.032707	0.048406	-0.001297	0.000256	0.000288	0.018769	0.002254
0.241	0.006761	-0.019793	0.052127	-0.001918	0	-0.000367	-0.011397	0.003369
0.2415	0.00609	-0.003458	0.056235	-0.003954	-0.001121	-0.001337	-0.027014	0.002013
0.242	0.007307	0.012643	0.055564	-0.007459	-0.002024	-0.001798	-0.00978	-2.8e-05
0.2425	0.007698	0.021713	0.04877	-0.008722	-0.002675	-0.00236	0.025342	-0.000291
0.243	0.005856	0.022141	0.036849	-0.007522	-0.002829	-0.001975	0.04598	8e-05
0.2435	0.003329	0.017785	0.010969	-0.006465	-0.001993	0.000324	0.03946	0.000277
0.244	0.001074	0.01253	-0.045459	-0.005531	-0.001198	0.002525	0.020154	0.001694
0.2445	-0.000772	0.008796	-0.131811	-0.005055	-0.001443	0.002118	0.005146	0.00322
0.245	-0.000883	0.00676	-0.214324	-0.006487	-0.0023	-0.000551	-0.005189	0.00275
0.2455	0.00085	0.004193	-0.248516	-0.008545	-0.003021	-0.003542	-0.019512	0.0017
0.246	0.002661	0.000258	-0.220486	-0.010412	-0.002683	-0.005444	-0.039703	0.001686
0.2465	0.003148	-0.002513	-0.156112	-0.013932	-0.000286	-0.004836	-0.063097	0.002711
0.247	0.002428	-0.002216	-0.084772	-0.020069	0.003144	-0.001268	-0.091275	0.004488
0.2475	0.002243	-0.000858	-0.011064	-0.02572	0.004766	0.00311	-0.122735	0.005295
0.248	0.003579	-0.000209	0.066019	-0.025897	0.004179	0.006305	-0.140971	0.003376
0.2485	0.004518	8.7e-05	0.128752	-0.019496	0.002832	0.007674	-0.121175	0.000594
0.249	0.003249	-0.000725	0.159214	-0.009332	0.000578	0.006764	-0.051729	0.000462
0.2495	0.001357	-0.002396	0.165533	0.000651	-0.001794	0.004834	0.052001	0.002209
0.25	0.001275	-0.002851	0.162775	0.006702	-0.001903	0.003604	0.152962	0.002423
0.2505	0.003055	-0.001704	0.145575	0.007024	0.000179	0.003272	0.204463	0.001014
0.251	0.00464	0.000519	0.111454	0.002202	0.002603	0.004354	0.169789	-7.5e-05
0.2515	0.003785	0.003157	0.084954	-0.004448	0.004452	0.006961	0.062293	-0.00051
0.252	0.000679	0.004776	0.06877	-0.007824	0.004411	0.008951	-0.045145	-0.000762
0.2525	-0.002085	0.005372	0.000562	-0.005586	0.001439	0.008298	-0.092821	-0.000947
0.253	-0.002637	0.006919	-0.154874	-0.001559	-0.001649	0.00555	-0.105443	-0.002172
0.2535	-0.00167	0.009519	-0.288244	-0.001413	-0.00115	0.002368	-0.151707	-0.005099
0.254	-0.000874	0.009924	-0.248137	-0.004523	0.001813	-0.000608	-0.245892	-0.006905
0.2545	-0.000627	0.006893	-0.06666	-0.005591	0.004019	-0.003465	-0.3254	-0.005396
0.255	-0.001104	0.003763	0.061008	-0.003151	0.00473	-0.005823	-0.312818	-0.00322
0.2555	-0.002868	0.003365	0.035469	-0.00053	0.004769	-0.006344	-0.172353	-0.003333
0.256	-0.004927	0.004534	-0.05265	0.000191	0.005082	-0.004166	0.065006	-0.005325
0.2565	-0.005572	0.004603	-0.096817	0.000603	0.005516	-0.001334	0.286179	-0.008097
0.257	-0.004754	0.004275	-0.104158	0.001758	0.004953	-0.00111	0.343392	-0.010829
0.2575	-0.004099	0.006556	-0.124824	0.002504	0.003316	-0.003222	0.201716	-0.010611
0.258	-0.004398	0.0106	-0.153687	0.002766	0.001705	-0.004097	0.024505	-0.006158
0.2585	-0.004656	0.012516	-0.137177	0.003093	0.001381	-0.001688	0.013122	-0.002213
0.259	-0.005093	0.010458	-0.039704	0.002947	0.001803	0.002034	0.162074	-0.002328
0.2595	-0.006897	0.005362	0.098289	0.002331	0.000707	0.00405	0.274619	-0.003491
0.26	-0.008102	0.000339	0.172391	0.002082	-0.00205	0.004231	0.224443	-0.002737
0.2605	-0.005973	-0.000894	0.12065	0.002439	-0.003985	0.003581	0.08816	-0.001477
0.261	-0.002679	0.001374	0.003639	0.002534	-0.003603	0.001547	-0.001753	-0.001699
0.2615	-0.001881	0.002695	-0.065484	0.001609	-0.002182	-0.00137	-0.019187	-0.00313
0.262	-0.002437	0.00068	-0.050437	0.000409	-0.001555	-0.002687	-0.013975	-0.004532
0.2625	-0.001759	-0.00322	-0.008025	0.000309	-0.00147	-0.002365	-0.010755	-0.004187
0.263	-0.00087	-0.007928	0.004687	0.001174	-0.000921	-0.002602	-0.00187	-0.001696
0.2635	-0.001589	-0.014323	-0.00923	0.001721	0.000223	-0.003102	0.006693	0.00039
0.264	-0.003598	-0.022517	-0.018337	0.002081	0.001798	-0.00283	-0.00069	0.001122
0.2645	-0.005253	-0.029072	-0.012323	0.002333	0.002354	-0.002933	-0.018741	0.001967
0.265	-0.004685	-0.028143	-0.001775	0.00151	0.000257	-0.004296	-0.032132	0.002927
0.2655	-0.001877	-0.017229	0.006424	0.000815	-0.002665	-0.005772	-0.041096	0.003531
0.266	0.000669	-0.002671	0.014512	0.001951	-0.003053	-0.005591	-0.048456	0.004089
0.2665	0.001098	0.002612	0.021117	0.004263	-0.000863	-0.003902	-0.036435	0.003831
0.267	1.4e-05	-0.007694	0.014053	0.006456	0.000997	-0.002312	0.013146	0.001267
0.2675	-0.001815	-0.023023	-0.016772	0.00774	0.000811	-0.001512	0.074961	-0.001162
0.268	-0.003921	-0.025729	-0.062698	0.007335	-0.000311	-0.001169	0.083875	0.000221
0.2685	-0.004364	-0.01116	-0.105208	0.004715	-0.000743	-0.00095	0.003114	0.002307
0.269	-0.002405	0.007878	-0.137811	0.001742	-0.000564	-0.000928	-0.122207	0.001358
0.2695	-0.000956	0.017727	-0.162123	0.00202	-0.000775	-0.000286	-0.196549	0.000331
0.27	-0.001821	0.018002	-0.16919	0.005033	-0.001256	0.002102	-0.157578	0.001929
0.2705	-0.002087	0.016299	-0.145416	0.005642	-0.001241	0.005302	-0.035746	0.003891
0.271	-0.000221	0.016412	-0.089717	0.002958	-0.001441	0.007391	0.062689	0.00335
0.2715	0.000454	0.016678	-0.007664	0.001659	-0.002916	0.007441	0.057226	0.001148
0.272	-0.000797	0.016051	0.09463	0.002839	-0.00463	0.00609	-0.015138	0.000517
0.2725	-0.000854	0.0158	0.187499	0.004347	-0.005233	0.004629	-0.043438	0.00251
0.273	0.000548	0.016068	0.214003	0.005339	-0.005014	0.003758	0.020902	0.004305
0.2735	0.001216	0.015364	0.149767	0.004705	-0.004605	0.004699	0.111548	0.002726
0.274	0.000192	0.012329	0.052316	0.00307	-0.004149	0.007689	0.137205	-0.000635
0.2745	-0.001479	0.007654	0.007473	0.002679	-0.00287	0.00982	0.0855	-0.002243
0.275	-0.001639	0.004067	0.030073	0.00271	-0.000454	0.008944	0.016508	-0.002259
0.2755	-7.5e-05	0.002732	0.061759	0.000269	0.000281	0.005731	-0.017902	-0.00163
0.276	0.001061	0.003026	0.07195	-0.005854	-0.002947	0.001521	-0.013832	-0.000188
0.2765	0.000897	0.004396	0.105497	-0.014041	-0.007182	-0.002162	0.010583	0.000865
0.277	0.000315	0.005287	0.199871	-0.0206	-0.007585	-0.00463	0.041242	0.000918
0.2775	0.000152	0.003324	0.30259	-0.021175	-0.003435	-0.007196	0.064091	0.001482
0.278	0.00086	-0.001844	0.320537	-0.014827	0.001079	-0.009808	0.063157	0.002257
0.2785	0.001344	-0.00723	0.230814	-0.006486	0.002311	-0.009488	0.035676	0.000893
0.279	0.000265	-0.009855	0.100206	-0.000672	0.000648	-0.005733	-0.000143	-0.001467
0.2795	-0.000972	-0.009117	0.004318	0.003678	-0.002191	-0.002138	-0.021768	-0.001193
0.28	-0.000661	-0.005069	-0.033003	0.008812	-0.004644	-0.001494	-0.024907	0.000996
0.2805	0.000838	0.000984	-0.023865	0.013069	-0.005177	-0.003135	-0.021519	0.000901
0.281	0.002898	0.005529	0.009549	0.013578	-0.003933	-0.004664	-0.020225	-0.002268
0.2815	0.004483	0.005588	0.027143	0.011814	-0.002438	-0.00507	-0.020344	-0.004759
0.282	0.004067	0.001886	-0.014504	0.010928	-0.000992	-0.005051	-0.020073	-0.003998
0.2825	0.002417	-0.001516	-0.106666	0.010621	0.00117	-0.004662	-0.020326	-0.001308
0.283	0.001999	-0.001824	-0.184963	0.010029	0.003155	-0.002887	-0.022149	0.001356
0.2835	0.003705	-0.000782	-0.208626	0.010073	0.003446	-4e-05	-0.024583	0.002894
0.284	0.006435	-0.00155	-0.203792	0.011454	0.002758	0.001738	-0.02638	0.002874
0.2845	0.0079	-0.003867	-0.20234	0.013357	0.002601	0.001657	-0.028936	0.002305
0.285	0.006365	-0.005878	-0.183772	0.013111	0.003134	0.000863	-0.034109	0.00273
0.2855	0.00277	-0.007777	-0.113456	0.008811	0.003464	0.000234	-0.040695	0.004037
0.286	-0.000657	-0.009296	-0.000936	0.002463	0.002691	0.000127	-0.046458	0.004004
0.2865	-0.002986	-0.00911	0.110741	-0.002323	0.000953	0.000117	-0.050491	0.001627
0.287	-0.004199	-0.008175	0.182871	-0.005106	-0.000402	-0.000206	-0.052445	-0.001763
0.2875	-0.003905	-0.008639	0.192465	-0.007134	-8.3e-05	-0.000131	-0.051506	-0.005192
0.288	-0.002407	-0.010725	0.140321	-0.006524	0.001589	0.000146	-0.046817	-0.007913
0.2885	-0.001523	-0.0126	0.062832	-0.002395	0.003154	-0.000242	-0.039471	-0.008638
0.289	-0.002158	-0.01298	0.007808	0.000295	0.004188	-0.000721	-0.032879	-0.006911
0.2895	-0.002867	-0.012251	-0.015731	-0.002356	0.005328	-0.00028	-0.029642	-0.003595
0.29	-0.002172	-0.010636	-0.045065	-0.008095	0.00607	0.001171	-0.026827	0.000116
0.2905	-0.000665	-0.007538	-0.112774	-0.013371	0.005613	0.00288	-0.016625	0.002527
0.291	-0.000271	-0.002582	-0.205757	-0.016224	0.004737	0.003564	0.003553	0.00242
0.2915	-0.001766	0.003313	-0.286914	-0.015421	0.004278	0.002425	0.023711	0.001853
0.292	-0.003507	0.008604	-0.342684	-0.01324	0.004609	0.0008	0.02903	0.003165
0.2925	-0.003783	0.012417	-0.383004	-0.014108	0.005238	0.0006	0.016639	0.00553
0.293	-0.003147	0.014376	-0.388696	-0.017703	0.004521	0.001376	0.000617	0.007262
0.2935	-0.002672	0.014708	-0.289335	-0.02127	0.003106	0.002012	-0.004697	0.006752
0.294	-0.00225	0.013365	-0.031985	-0.024097	0.003165	0.002482	-0.000453	0.003672
0.2945	-0.001499	0.009451	0.321767	-0.024362	0.004269	0.002224	0.002793	0.001244
0.295	-0.001174	0.003773	0.596848	-0.021081	0.005152	0.000554	4e-05	0.002834
0.2955	-0.002994	-0.000886	0.640561	-0.020203	0.00577	-0.001594	-0.004071	0.006497
0.296	-0.006842	-0.00437	0.465117	-0.03021	0.005576	-0.002508	-0.00348	0.007798
0.2965	-0.009344	-0.009916	0.229864	-0.051061	0.004366	-0.001438	0.00113	0.006537
0.297	-0.007463	-0.016935	0.079461	-0.073187	0.00435	0.001026	0.004105	0.004697
0.2975	-0.002445	-0.018436	0.030321	-0.086837	0.006006	0.003221	0.002865	0.003389
0.298	0.001769	-0.010059	0.01329	-0.090226	0.005826	0.003737	0.000864	0.003619
0.2985	0.002687	0.002062	-0.022872	-0.090972	0.003041	0.004299	0.001658	0.003497
0.299	0.000753	0.006607	-0.0741	-0.09557	0.000851	0.006569	0.004408	0.000534
0.2995	-0.001054	0.001894	-0.114104	-0.097418	0.000297	0.007328	0.00677	-0.002892
0.3	0.000124	-0.001079	-0.128275	-0.083052	0.000301	0.004592	0.007932	-0.003368
0.3005	0.003463	0.004167	-0.11061	-0.046878	0.000401	0.000777	0.008113	-0.001498
0.301	0.005523	0.011835	-0.051553	0.006559	-0.000123	-0.003344	0.008016	-0.000345
0.3015	0.004331	0.016727	0.0391	0.068697	-0.00211	-0.007876	0.008643	-0.001485
0.302	0.000914	0.019888	0.096195	0.12812	-0.004525	-0.010109	0.009811	-0.003434
0.3025	-0.00187	0.02234	0.039264	0.172968	-0.005458	-0.0086	0.009966	-0.003836
0.303	-0.001569	0.022867	-0.107191	0.198466	-0.005099	-0.006291	0.007611	-0.002589
0.3035	0.00156	0.019948	-0.189348	0.206991	-0.00509	-0.005552	0.002073	-0.002481
0.304	0.005488	0.014103	-0.095782	0.201051	-0.005727	-0.0051	-0.005264	-0.005394
0.3045	0.009529	0.007565	0.092901	0.179524	-0.00628	-0.003701	-0.010087	-0.00853
0.305	0.013732	0.000513	0.202168	0.140534	-0.006791	-0.001724	-0.00869	-0.008224
0.3055	0.016208	-0.007658	0.169676	0.089186	-0.006785	0.000296	-0.00349	-0.005869
0.306	0.01454	-0.014044	0.082401	0.039631	-0.004571	0.001634	-0.000432	-0.004444
0.3065	0.010055	-0.015535	0.0325	0.005242	-0.000102	0.001909	-0.000221	-0.003361
0.307	0.006961	-0.015266	0.004563	-0.010703	0.003463	0.001768	0.00241	-0.001833
0.3075	0.00679	-0.01948	-0.075178	-0.012565	0.00294	0.001637	0.011359	-0.001283
0.308	0.007534	-0.027713	-0.214521	-0.006759	-0.000461	0.001226	0.02508	-0.002638
0.3085	0.007125	-0.034023	-0.327287	-0.00138	-0.003589	0.000955	0.039008	-0.004215
0.309	0.005217	-0.036375	-0.340133	-0.003244	-0.005707	0.00152	0.049172	-0.003072
0.3095	0.003208	-0.035302	-0.28175	-0.011586	-0.006197	0.002292	0.052547	-0.00021
0.31	0.002406	-0.027228	-0.225956	-0.019691	-0.004556	0.002412	0.046017	0.000627
0.3105	0.002168	-0.008736	-0.187464	-0.023933	-0.002366	0.001919	0.029133	0.000142
0.311	0.001181	0.013948	-0.129943	-0.026526	-0.000299	0.000933	0.008589	0.001186
0.3115	-0.001018	0.028077	-0.038412	-0.028463	0.002002	-0.000536	-0.00555	0.003108
0.312	-0.003537	0.028369	0.081152	-0.027089	0.002986	-0.001368	-0.009601	0.003325
0.3125	-0.004636	0.021563	0.233392	-0.022622	0.000973	-0.00015	-0.007821	0.001097
0.313	-0.004394	0.016016	0.392437	-0.020149	-0.002544	0.001909	-0.004993	-0.000985
0.3135	-0.004391	0.012706	0.468841	-0.02342	-0.004639	0.002291	-0.002388	-0.000549
0.314	-0.004242	0.008019	0.394618	-0.030066	-0.004333	0.000827	-0.00025	0.000811
0.3145	-0.002507	0.000955	0.217804	-0.034682	-0.001935	-0.000528	0.001268	-0.000173
0.315	4e-05	-0.005145	0.055449	-0.034876	0.001353	0.000224	0.002993	-0.00335
0.3155	0.001291	-0.006727	-0.026145	-0.032752	0.003124	0.002461	0.004999	-0.004798
0.316	0.000426	-0.003538	-0.045043	-0.03217	0.002955	0.002826	0.006016	-0.003335
0.3165	-0.001522	0.000946	-0.044878	-0.03295	0.002345	0.000302	0.005148	-0.001567
0.317	-0.002295	0.002785	-0.04637	-0.030707	0.001564	-0.00209	0.002249	-0.000324
0.3175	-0.000999	0.002386	-0.049515	-0.02604	0.001134	-0.001094	-0.001981	0.000741
0.318	-6.3e-05	0.0026	-0.054845	-0.023477	0.001486	0.002761	-0.005524	0.00103
0.3185	-0.001246	0.004192	-0.075192	-0.02212	0.0005	0.004813	-0.00694	0.001083
0.319	-0.002444	0.006254	-0.120822	-0.019442	-0.002748	0.002898	-0.007361	0.001718
0.3195	-0.001446	0.006774	-0.168383	-0.017726	-0.005139	0.00087	-0.008249	0.001953
0.32	0.000268	0.002676	-0.167893	-0.018475	-0.004698	0.00132	-0.00898	0.002291
0.3205	-0.000128	-0.00641	-0.099693	-0.018956	-0.003711	0.001432	-0.008364	0.004904
0.321	-0.002467	-0.014305	-0.003451	-0.017508	-0.003892	-0.000762	-0.006541	0.007751
0.3215	-0.004688	-0.012366	0.067228	-0.014504	-0.004416	-0.002949	-0.004472	0.007512
0.322	-0.005603	0.000829	0.097387	-0.010814	-0.004424	-0.00247	-0.001872	0.006141
0.3225	-0.005276	0.016651	0.100823	-0.008505	-0.003656	0.00028	0.003124	0.006499
0.323	-0.005381	0.024338	0.083091	-0.00794	-0.003596	0.001847	0.009898	0.007709
0.3235	-0.007097	0.021492	0.04324	-0.007468	-0.005504	-9.1e-05	0.013306	0.008115
0.324	-0.008918	0.015697	-0.000271	-0.006548	-0.006538	-0.003089	0.010518	0.007585
0.3245	-0.008678	0.014192	-0.013601	-0.00514	-0.004521	-0.003653	0.006184	0.006326
0.325	-0.006434	0.015598	0.014489	-0.003182	-0.001968	-0.002617	0.005484	0.00397
0.3255	-0.004229	0.014205	0.050655	-0.00281	-0.000317	-0.002839	0.006191	0.000194
0.326	-0.003419	0.007816	0.056042	-0.006234	0.002223	-0.003736	0.000903	-0.003741
0.3265	-0.004138	-0.002167	0.043623	-0.009618	0.005017	-0.003393	-0.013849	-0.005331
0.327	-0.005427	-0.014473	0.05303	-0.008092	0.005193	-0.002453	-0.030116	-0.005807
0.3275	-0.005522	-0.026279	0.070327	-0.0039	0.003527	-0.00175	-0.032125	-0.008647
0.328	-0.005169	-0.031913	0.041718	-0.00114	0.002957	-0.001261	-0.013581	-0.011097
0.3285	-0.006157	-0.029453	-0.027117	-0.001321	0.004159	-0.001789	0.010854	-0.008922
0.329	-0.006801	-0.024673	-0.068741	-0.003613	0.006314	-0.003128	0.021151	-0.004766
0.3295	-0.005359	-0.023433	-0.069532	-0.003999	0.007532	-0.003097	0.01538	-0.002776
0.33	-0.003604	-0.023322	-0.103482	-0.000159	0.006151	-0.001012	0.007872	-0.003749
0.3305	-0.002565	-0.017242	-0.215443	0.00532	0.00396	0.001218	0.008194	-0.006594
0.331	-0.000379	-0.004641	-0.338116	0.008946	0.003766	0.002021	0.011573	-0.008996
0.3315	0.003301	0.006773	-0.373719	0.008945	0.004847	0.001537	0.00961	-0.009321
0.332	0.006323	0.012191	-0.319032	0.005953	0.005272	0.001102	0.000709	-0.007983
0.3325	0.007657	0.014245	-0.253055	0.00364	0.005249	0.001297	-0.013146	-0.005308
0.333	0.008293	0.01553	-0.209434	0.004535	0.004933	0.001301	-0.030717	-0.002215
0.3335	0.008688	0.01477	-0.117901	0.0065	0.003476	0.001948	-0.046852	-0.001224
0.334	0.00715	0.011109	0.098535	0.007128	0.000948	0.004118	-0.048459	-0.002022
0.3345	0.004044	0.007437	0.388353	0.005394	-0.001028	0.005278	-0.023347	-0.00246
0.335	0.003153	0.006017	0.572034	0.001172	-0.000617	0.003671	0.021684	-0.00378
0.3355	0.0044	0.003527	0.504015	-0.001234	0.00092	0.001179	0.055417	-0.00665
0.336	0.004079	-0.002518	0.229154	0.001956	0.00032	-0.000135	0.047348	-0.00776
0.3365	0.002606	-0.006848	-0.045428	0.007281	-0.002524	-8.6e-05	0.004372	-0.004959
0.337	0.002492	-0.003641	-0.147991	0.010571	-0.004749	0.000395	-0.026123	-0.000466
0.3375	0.002239	0.005404	-0.101063	0.013013	-0.00471	0.000405	-0.005031	0.002313
0.338	-0.000408	0.01389	-0.054623	0.016453	-0.003974	0.000559	0.046663	0.002919
0.3385	-0.0031	0.016526	-0.073155	0.019193	-0.004614	0.002382	0.067499	0.003139
0.339	-0.002533	0.012341	-0.065936	0.019461	-0.005301	0.004706	0.028214	0.004066
0.3395	9.1e-05	0.006578	0.045019	0.017815	-0.003455	0.00489	-0.040541	0.004757
0.34	0.001586	0.007997	0.186004	0.014905	4.2e-05	0.003252	-0.088687	0.004143
0.3405	0.001213	0.019034	0.236328	0.011578	0.002172	0.000749	-0.091713	0.003555
0.341	0.000533	0.032317	0.193229	0.008436	0.002125	-0.002753	-0.060346	0.004205
0.3415	0.000892	0.039918	0.140089	0.004053	0.001217	-0.005627	-0.023359	0.005101
0.342	0.00168	0.039905	0.1106	-0.001648	0.001023	-0.005758	-0.003824	0.004767
0.3425	0.001264	0.034521	0.076098	-0.004649	0.002421	-0.003421	-0.004658	0.003415
0.343	-0.000341	0.027085	0.027388	-0.003056	0.003977	-0.000645	-0.011862	0.002533
0.3435	-0.001108	0.019197	-0.009015	-0.001571	0.003287	0.001632	-0.01255	0.002244
0.344	-0.000268	0.007463	-0.018313	-0.00464	0.000442	0.004194	-0.008429	0.002537
0.3445	0.000724	-0.014655	-0.010902	-0.011024	-0.001769	0.006007	-0.007448	0.00405
0.345	0.000574	-0.046443	0.002742	-0.015891	-0.000103	0.004377	-0.009133	0.006119
0.3455	-0.000965	-0.074524	0.020581	-0.015861	0.00603	-0.000349	-0.00669	0.007672
0.346	-0.002323	-0.082931	0.035673	-0.012233	0.012983	-0.004927	0.00234	0.008745
0.3465	-0.001807	-0.067062	0.032341	-0.007089	0.015434	-0.006827	0.013804	0.011267
0.347	-0.000698	-0.036354	0.001279	-0.002297	0.011854	-0.005563	0.0228	0.016299
0.3475	-0.000768	-0.005734	-0.045041	5e-05	0.006549	-0.003153	0.028513	0.021328
0.348	-0.001636	0.013655	-0.077354	0.002116	0.00299	-0.002549	0.032664	0.024772
0.3485	-0.001591	0.018294	-0.074859	0.005589	0.000124	-0.003694	0.03542	0.027606
0.349	0.000122	0.012059	-0.044553	0.007672	-0.002343	-0.0038	0.034617	0.029677
0.3495	0.00127	0.002244	-0.009811	0.008354	-0.002688	-0.002194	0.028436	0.030189
0.35	-0.000418	-0.005652	0.013703	0.011031	-0.000893	-0.000798	0.018884	0.029705
0.3505	-0.003124	-0.008894	0.021175	0.017169	0.000414	3.1e-05	0.011315	0.02871
0.351	-0.003377	-0.00755	0.009543	0.025204	-0.000804	0.000857	0.008604	0.02692
0.3515	-0.000984	-0.00431	-0.01886	0.031794	-0.003398	0.000967	0.008738	0.025559
0.352	0.001537	-0.000769	-0.047661	0.034004	-0.005296	0.000691	0.008831	0.024914
0.3525	0.002109	0.002221	-0.058485	0.031159	-0.006234	0.001256	0.007277	0.020478
0.353	0.000528	0.001776	-0.058043	0.023713	-0.007632	0.002291	0.003595	0.009146
0.3535	-0.000911	-0.002745	-0.075923	0.011011	-0.009844	0.002624	-0.000648	-0.004799
0.354	-0.000249	-0.006094	-0.120819	-0.005205	-0.011303	0.001995	-0.002957	-0.015438
0.3545	0.000972	-0.003082	-0.15805	-0.018345	-0.01266	0.001706	-0.002207	-0.022243
0.355	0.000733	0.003557	-0.15231	-0.024474	-0.016252	0.002456	0.000687	-0.028001
0.3555	-0.000174	0.006128	-0.114667	-0.027633	-0.02023	0.002595	0.00321	-0.033306
0.356	-0.000297	0.002373	-0.08392	-0.033365	-0.019753	0.001617	0.003308	-0.036249
0.3565	0.000491	-0.003417	-0.07662	-0.039601	-0.013076	0.00033	0.001144	-0.035449
0.357	0.002284	-0.007478	-0.074163	-0.040207	-0.00257	-0.001237	-0.000558	-0.032185
0.3575	0.005219	-0.008994	-0.046863	-0.035247	0.00688	-0.002042	0.001869	-0.029256
0.358	0.007729	-0.00805	0.01083	-0.030136	0.009666	-0.001334	0.00854	-0.027382
0.3585	0.007274	-0.004206	0.052319	-0.028662	0.005022	0.000192	0.01439	-0.024906
0.359	0.003759	0.001397	0.021375	-0.02948	-0.001322	0.001868	0.013256	-0.020826
0.3595	-8.3e-05	0.003782	-0.040945	-0.028436	-0.004448	0.002528	0.003394	-0.016232
0.36	-0.002822	-0.001402	-0.008057	-0.024956	-0.004583	0.001696	-0.010267	-0.013291
0.3605	-0.005247	-0.01024	0.149121	-0.021704	-0.002881	0.000398	-0.02041	-0.01376
0.361	-0.007025	-0.011659	0.284203	-0.018148	0.001828	-0.000974	-0.023793	-0.016478
0.3615	-0.007073	-3.7e-05	0.260826	-0.010945	0.008494	-0.00228	-0.02264	-0.01773
0.362	-0.00591	0.016759	0.126308	-0.001305	0.01044	-0.002311	-0.021698	-0.017042
0.3625	-0.003973	0.025379	0.015841	0.005872	0.002558	-0.00132	-0.025664	-0.016074
0.363	-0.000676	0.020729	-0.034047	0.011263	-0.009355	-0.001155	-0.036695	-0.013915
0.3635	0.002914	0.009551	-0.080698	0.020246	-0.012743	-0.001166	-0.04825	-0.01115
0.364	0.004346	0.000972	-0.139658	0.033453	-0.004721	0.000223	-0.038674	-0.010212
0.3645	0.003813	-0.001727	-0.155149	0.045188	0.003501	0.002471	0.016681	-0.010983
0.365	0.004404	6.8e-05	-0.097977	0.051671	0.003327	0.004488	0.101743	-0.012017
0.3655	0.006766	0.003193	-0.016011	0.056921	-0.000566	0.005449	0.133789	-0.011565
0.366	0.007556	0.004579	0.030081	0.065644	-0.00079	0.005433	0.039242	-0.008171
0.3665	0.005792	0.003732	0.032165	0.073089	0.001772	0.005375	-0.124482	-0.002727
0.367	0.004532	0.001626	0.016991	0.068612	0.002119	0.005302	-0.196471	0.0019
0.3675	0.004857	-0.001291	-0.001198	0.049537	7.6e-05	0.004247	-0.1051	0.003668
0.368	0.005169	-0.003135	-0.028766	0.025846	0.000841	0.001795	0.03495	0.003458
0.3685	0.004709	-0.002785	-0.072192	0.009091	0.007105	-0.000989	0.074996	0.00295
0.369	0.003479	-0.003565	-0.124562	0.002891	0.014226	-0.003047	0.01912	0.002145
0.3695	0.001872	-0.007188	-0.161821	0.003871	0.016486	-0.004484	-0.015114	0.001105
0.37	0.000753	-0.009541	-0.150386	0.005851	0.014483	-0.005349	0.027887	0.001825
0.3705	-3.3e-05	-0.006377	-0.076445	0.004377	0.012826	-0.005264	0.090426	0.005796
0.371	-0.001444	0.001849	0.026328	-0.000467	0.013359	-0.004354	0.102851	0.011086
0.3715	-0.003856	0.010191	0.097275	-0.005319	0.014348	-0.002854	0.063682	0.014452
0.372	-0.006611	0.014543	0.115438	-0.007923	0.015339	-0.000811	0.015345	0.014935
0.3725	-0.007695	0.016577	0.126131	-0.009304	0.016962	0.000773	-0.012779	0.014303
0.373	-0.006256	0.019698	0.169708	-0.01068	0.017746	0.000992	-0.020849	0.014292
0.3735	-0.004527	0.023196	0.210743	-0.011849	0.017017	0.000598	-0.019409	0.013909
0.374	-0.004004	0.023518	0.187361	-0.013247	0.015553	0.000234	-0.012718	0.011543
0.3745	-0.003831	0.019091	0.109635	-0.015565	0.011325	-0.000305	-0.00172	0.007863
0.375	-0.003879	0.012187	0.048851	-0.017195	-0.000542	-0.00123	0.009428	0.005024
0.3755	-0.003994	0.006909	0.035447	-0.01593	-0.022671	-0.002278	0.015706	0.004011
0.376	-0.002645	0.005519	0.028345	-0.013418	-0.047934	-0.002081	0.014385	0.002142
0.3765	-9.2e-05	0.005018	-0.00822	-0.012567	-0.059585	-0.000784	0.007205	-0.003475
0.377	0.001396	-0.001019	-0.052948	-0.012219	-0.04659	-0.000521	0.000523	-0.009648
0.3775	0.000969	-0.014909	-0.068933	-0.011236	-0.017282	-0.000798	-0.001596	-0.011198
0.378	-0.000179	-0.031577	-0.055108	-0.011703	0.007319	-0.000508	-0.00201	-0.009162
0.3785	-0.000321	-0.043418	-0.03516	-0.014107	0.013794	-0.001577	-0.004658	-0.007986
0.379	0.001242	-0.045714	-0.021603	-0.018068	0.007321	-0.004536	-0.008133	-0.007996
0.3795	0.003489	-0.037559	-0.011337	-0.024949	0.001549	-0.006682	-0.00847	-0.006349
0.38	0.004577	-0.021434	-0.002351	-0.032645	0.002157	-0.006658	-0.005249	-0.002485
0.3805	0.004118	-0.003658	0.001872	-0.035943	0.004843	-0.005783	-0.001603	0.001073
0.381	0.003702	0.008859	-0.000592	-0.035155	0.005438	-0.00473	0.00064	0.002079
0.3815	0.003495	0.013918	-0.006269	-0.035291	0.004505	-0.003257	0.002527	0.001337
0.382	0.002392	0.014582	-0.009368	-0.038341	0.00372	-0.002101	0.003882	0.000313
0.3825	0.00094	0.014525	-0.009579	-0.04237	0.003698	-0.001832	0.003042	-0.001094
0.383	-0.000619	0.013259	-0.013787	-0.045828	0.003505	-0.002707	0.001279	-0.001499
0.3835	-0.002591	0.009074	-0.025522	-0.049871	0.001557	-0.004466	0.00028	0.000783
0.384	-0.003595	0.00437	-0.035417	-0.053759	-0.000972	-0.004587	-0.001196	0.003658
0.3845	-0.00284	0.001886	-0.026673	-0.052922	-0.000969	-0.001329	-0.002686	0.003801
0.385	-0.002274	0.000805	0.007633	-0.045211	0.001553	0.002934	-0.002442	0.00125
0.3855	-0.00362	0.000561	0.05521	-0.03295	0.003241	0.005417	-0.001916	-0.000231
0.386	-0.005224	0.002132	0.095862	-0.02032	0.002515	0.006655	-0.003072	0.003301
0.3865	-0.005661	0.004897	0.115916	-0.009962	0.001196	0.007836	-0.005697	0.014072
0.387	-0.006421	0.006378	0.107947	-0.001028	0.001009	0.008807	-0.007741	0.033393
0.3875	-0.007682	0.004939	0.067911	0.00809	0.001475	0.009256	-0.007706	0.05792
0.388	-0.008583	0.001722	0.00561	0.018648	0.001445	0.008283	-0.007389	0.075403
0.3885	-0.008761	-0.000892	-0.045561	0.030821	0.00071	0.005619	-0.008443	0.072395
0.389	-0.005909	-0.002321	-0.051409	0.042386	-0.000187	0.003285	-0.00984	0.048322
0.3895	-2e-06	-0.003766	-0.017348	0.05403	0.000134	0.002614	-0.01038	0.017175
0.39	0.003496	-0.00597	0.01834	0.071588	0.002217	0.002488	-0.010022	-0.005536
0.3905	0.002451	-0.007	0.039441	0.095914	0.003908	0.002204	-0.010873	-0.016292
0.391	0.00144	-0.004051	0.068953	0.117439	0.003575	0.002185	-0.016431	-0.022532
0.3915	0.002664	0.000918	0.113296	0.12584	0.001433	0.001952	-0.026653	-0.02805
0.392	0.004053	0.003338	0.119867	0.115905	-0.002533	0.001405	-0.035089	-0.028779
0.3925	0.004209	0.002679	0.040353	0.085521	-0.00691	0.001141	-0.034417	-0.023911
0.393	0.00291	0.001345	-0.071551	0.041438	-0.008828	0.000122	-0.025184	-0.018515
0.3935	0.001364	0.001601	-0.105096	0.001676	-0.007405	-0.001833	-0.014554	-0.01553
0.394	0.000969	0.004603	-0.057768	-0.018364	-0.004022	-0.002554	-0.007377	-0.013442
0.3945	0.000821	0.009381	-0.065283	-0.018506	-0.00131	-0.001135	-0.005327	-0.011074
0.395	-0.000184	0.013243	-0.212781	-0.009501	-0.002557	0.001483	-0.010628	-0.009863
0.3955	-0.000971	0.013029	-0.392005	-0.001833	-0.008112	0.003653	-0.023824	-0.009869
0.396	-0.000105	0.007693	-0.424216	-0.001384	-0.013346	0.00369	-0.04308	-0.007305
0.3965	0.001175	0.000318	-0.280432	-0.006544	-0.013631	0.001481	-0.065361	0.000235
0.397	0.000617	-0.003965	-0.09412	-0.00979	-0.009484	-0.001221	-0.081206	0.008462
0.3975	-0.00027	-0.002311	0.020589	-0.009387	-0.005577	-0.002403	-0.074371	0.012078
0.398	0.001429	0.003141	0.070454	-0.010301	-0.004404	-0.002428	-0.043713	0.013909
0.3985	0.00382	0.006607	0.109069	-0.013105	-0.002552	-0.003204	-0.024762	0.02087
0.399	0.00328	0.003624	0.148917	-0.013935	0.001669	-0.004876	-0.063057	0.032724
0.3995	0.001117	-0.004102	0.169245	-0.013038	0.004488	-0.006659	-0.15428	0.042022
0.4	0.000942	-0.010033	0.160807	-0.014303	0.005884	-0.007955	-0.231433	0.044596
0.4005	0.002671	-0.009581	0.131407	-0.017526	0.010521	-0.008069	-0.230007	0.042955
0.401	0.00336	-0.00378	0.084892	-0.018836	0.019072	-0.007194	-0.154373	0.038515
0.4015	0.001638	0.002169	0.01859	-0.017533	0.026403	-0.00587	-0.054526	0.028946
0.402	-0.000905	0.00279	-0.061101	-0.016354	0.026683	-0.004186	0.056544	0.013816
0.4025	-0.001689	-0.002675	-0.13178	-0.016582	0.019008	-0.001888	0.213312	-0.004578
0.403	9.6e-05	-0.008925	-0.167844	-0.016921	0.00817	0.001958	0.397054	-0.024408
0.4035	0.002465	-0.012001	-0.161309	-0.0164	-0.00063	0.007013	0.482768	-0.043549
0.404	0.002468	-0.015827	-0.126758	-0.01502	-0.00638	0.010176	0.371062	-0.057985
0.4045	0.000272	-0.024972	-0.083066	-0.013395	-0.010351	0.010367	0.152424	-0.064455
0.405	-0.000208	-0.035945	-0.033882	-0.012924	-0.012706	0.010234	0.037467	-0.064062
0.4055	0.002053	-0.040516	0.031255	-0.013643	-0.013937	0.009758	0.101665	-0.061094
0.406	0.003751	-0.032292	0.118658	-0.016009	-0.016081	0.007147	0.194537	-0.058962
0.4065	0.003722	-0.012809	0.212295	-0.021477	-0.020661	0.004427	0.154442	-0.056954
0.407	0.003262	0.005685	0.271566	-0.026641	-0.028809	0.003838	0.021825	-0.05141
0.4075	0.002733	0.011505	0.25758	-0.026654	-0.041267	0.004051	-0.048382	-0.04331
0.408	0.001129	0.00626	0.174774	-0.022476	-0.051923	0.002825	-0.012133	-0.038069
0.4085	-0.001942	0.000253	0.07951	-0.018004	-0.044591	-0.000151	0.037908	-0.03462
0.409	-0.004194	0.000833	0.029998	-0.014974	-0.007186	-0.003572	0.032209	-0.026147
0.4095	-0.00323	0.008142	0.030069	-0.012597	0.047564	-0.006205	-0.001152	-0.012399
0.41	0.000942	0.016417	0.038161	-0.010148	0.084777	-0.007284	-0.016882	-0.000108
0.4105	0.006219	0.019287	0.025972	-0.007815	0.081097	-0.007131	-0.017682	0.00784
0.411	0.00888	0.017248	0.004864	-0.005528	0.049747	-0.006944	-0.022602	0.013437
0.4115	0.006272	0.016077	-0.007611	-0.002445	0.02041	-0.007469	-0.027869	0.01717
0.412	-0.000251	0.017979	-0.018551	0.001851	0.005894	-0.008857	-0.022219	0.018193
0.4125	-0.006292	0.020533	-0.041369	0.006582	0.001188	-0.00975	-0.011908	0.016481
0.413	-0.009015	0.021781	-0.067228	0.012856	-6e-05	-0.008114	-0.010383	0.015294
0.4135	-0.009307	0.021759	-0.073543	0.022472	-7.4e-05	-0.004312	-0.01827	0.022034
0.414	-0.009205	0.020593	-0.054856	0.031471	0.000151	-0.001009	-0.027857	0.038878
0.4145	-0.009795	0.017956	-0.029319	0.032786	-0.00071	-4e-06	-0.035777	0.05708
0.415	-0.010481	0.014648	-0.012933	0.026136	-0.002858	-0.000434	-0.040952	0.067931
0.4155	-0.00946	0.011849	-0.004243	0.018107	-0.004795	-0.00039	-0.038373	0.072082
0.416	-0.006817	0.008391	0.001445	0.012753	-0.005839	0.001427	-0.025349	0.074767
0.4165	-0.005735	0.001807	-0.000518	0.009433	-0.006854	0.004702	-0.011465	0.079054
0.417	-0.007402	-0.00669	-0.012606	0.007083	-0.007656	0.006995	-0.011017	0.083281
0.4175	-0.008295	-0.011691	-0.022923	0.005047	-0.006882	0.006204	-0.024586	0.08067
0.418	-0.006076	-0.011533	-0.019656	0.00317	-0.004347	0.003162	-0.038271	0.065119
0.4185	-0.003286	-0.013524	-0.008372	0.00178	-0.001653	0.001268	-0.041993	0.038271
0.419	-0.002936	-0.024819	-0.001685	5e-06	-0.000787	0.002318	-0.042491	0.00712
0.4195	-0.004615	-0.039811	-0.002376	-0.003625	-0.0015	0.002726	-0.057215	-0.02295
0.42	-0.007614	-0.045201	-0.005877	-0.007891	-0.000707	-0.000918	-0.093896	-0.050375
0.4205	-0.011188	-0.03671	-0.009828	-0.009397	0.003424	-0.005019	-0.137447	-0.074547
0.421	-0.008253	-0.021179	-0.013183	-0.007402	0.008407	-0.004695	-0.16321	-0.091678
0.4215	0.006773	-0.005368	-0.012836	-0.004084	0.010473	-0.001109	-0.161697	-0.09637
0.422	0.02124	0.007063	-0.008257	-0.001055	0.008225	0.001736	-0.145663	-0.090051
0.4225	0.015759	0.013378	-0.003365	0.000952	0.002906	0.00218	-0.133679	-0.082499
0.423	-0.004638	0.015226	-0.000777	0.001581	-0.001969	0.001387	-0.13062	-0.081296
0.4235	-0.01313	0.017682	0.000658	0.001334	-0.003186	0.001309	-0.123162	-0.085653
0.424	-0.000413	0.020465	0.002652	0.001168	-0.001961	0.002491	-0.081796	-0.090955
0.4245	0.01237	0.018272	0.003753	0.001673	-0.002384	0.004272	0.022386	-0.093002
0.425	0.008395	0.010223	0.001539	0.002333	-0.00565	0.006153	0.166359	-0.087305
0.4255	-0.000554	0.000989	-0.001638	0.002419	-0.008802	0.007793	0.255471	-0.06898
0.426	0.006005	-0.002937	-0.001172	0.001775	-0.009507	0.008517	0.211058	-0.039299
0.4265	0.030091	0.00586	0.003343	-5.1e-05	-0.009334	0.00755	0.075647	-0.009967
0.427	0.056149	0.02851	0.007669	-0.00195	-0.010395	0.004816	-0.022668	0.006967
0.4275	0.069945	0.049713	0.006896	-0.000849	-0.011992	0.001611	-0.01739	0.012177
0.428	0.068603	0.045879	0.00092	0.003142	-0.012936	0.000178	0.036326	0.015978
0.4285	0.056595	0.013581	-0.004661	0.005368	-0.013661	0.000966	0.054039	0.022579
0.429	0.040806	-0.021123	-0.005785	0.003747	-0.01457	0.000551	0.018782	0.026114
0.4295	0.029443	-0.034561	-0.005247	0.001737	-0.014495	-0.003534	-0.024037	0.023578
0.43	0.027194	-0.031301	-0.007229	0.001387	-0.01224	-0.007765	-0.025553	0.021437
0.4305	0.026125	-0.028403	-0.010816	0.001253	-0.009286	-0.007953	0.024934	0.026617
0.431	0.01125	-0.029842	-0.012666	0.000481	-0.007984	-0.005148	0.093622	0.036143
0.4315	-0.01759	-0.026591	-0.010696	-0.00103	-0.007464	-0.002083	0.12828	0.041624
0.432	-0.041121	-0.014319	-0.004733	-0.003359	-0.00414	0.00104	0.102699	0.041616
0.4325	-0.045092	-0.001237	0.00187	-0.005594	0.004373	0.003877	0.040325	0.041201
0.433	-0.038643	0.003216	0.0041	-0.006554	0.015612	0.004447	-0.009914	0.042933
0.4335	-0.038164	0.003802	0.000811	-0.007385	0.023815	0.00282	-0.021097	0.044591
0.434	-0.042315	0.016589	-0.004445	-0.009751	0.025946	0.000637	-0.008076	0.045433
0.4345	-0.036928	0.047782	-0.007844	-0.01282	0.023473	-0.001463	2.7e-05	0.049188
0.435	-0.018488	0.080472	-0.007922	-0.015668	0.019186	-0.003217	-0.005749	0.05639
0.4355	-0.000172	0.087254	-0.005468	-0.017298	0.014369	-0.004857	-0.015164	0.061598
0.436	0.005806	0.059057	-0.00372	-0.016559	0.00942	-0.006029	-0.019492	0.060707
0.4365	0.000342	0.01765	-0.005832	-0.014964	0.005717	-0.005429	-0.020054	0.054088
0.437	-0.012226	-0.006598	-0.010162	-0.01353	0.004602	-0.003679	-0.020786	0.044499
0.4375	-0.030465	-0.00507	-0.011762	-0.010632	0.005851	-0.002556	-0.020198	0.036719
0.438	-0.047005	0.00826	-0.009232	-0.006067	0.008923	-0.002369	-0.015551	0.038057
0.4385	-0.048893	0.021569	-0.005623	-0.001234	0.013844	-0.002402	-0.009371	0.051406
0.439	-0.034488	0.035235	-0.002905	0.00501	0.019057	-0.002382	-0.00576	0.067486
0.4395	-0.018351	0.047875	-0.000443	0.014337	0.022282	-0.002475	-0.005324	0.072466
0.44	-0.012636	0.049264	0.002599	0.023666	0.022935	-0.001277	-0.005797	0.061291
0.4405	-0.014052	0.031822	0.005878	0.028693	0.016742	0.00237	-0.004582	0.040168
0.441	-0.012373	0.003949	0.007798	0.027466	-0.006661	0.005829	-0.002204	0.017948
0.4415	-0.004512	-0.015927	0.00799	0.019831	-0.046037	0.005997	-0.002432	-0.001224
0.442	0.003325	-0.01968	0.008315	0.011072	-0.068804	0.003464	-0.00684	-0.015124
0.4425	0.006171	-0.013811	0.009489	0.008198	-0.036272	0.000762	-0.012144	-0.022522
0.443	0.005644	-0.006896	0.010194	0.010619	0.037882	-0.000932	-0.01392	-0.025591
0.4435	0.004115	-0.002341	0.010092	0.013552	0.089446	-0.001479	-0.011435	-0.024079
0.444	0.001291	0.001373	0.010295	0.01616	0.08146	-0.001198	-0.008015	-0.011681
0.4445	-0.001935	0.008561	0.01034	0.018865	0.042459	-0.001372	-0.006285	0.013606
0.445	-0.001641	0.020865	0.007922	0.018444	0.011189	-0.001883	-0.005452	0.040728
0.4455	0.003921	0.028658	0.002911	0.01331	-0.015802	-0.001338	-0.004304	0.054973
0.446	0.011854	0.012277	-0.001541	0.00636	-0.055586	0.000126	-0.003236	0.051755
0.4465	0.017405	-0.037472	-0.003341	-0.000131	-0.092758	0.001095	-0.0031	0.037637
0.447	0.017393	-0.102434	-0.005089	-0.005698	-0.095608	0.000212	-0.004297	0.020975
0.4475	0.0131	-0.153397	-0.010426	-0.010657	-0.064263	-0.00199	-0.006351	0.004286
0.448	0.008044	-0.182218	-0.01777	-0.013985	-0.036435	-0.003033	-0.008198	-0.011902
0.4485	0.00484	-0.203991	-0.021732	-0.012828	-0.039867	-0.001344	-0.009682	-0.024584
0.449	0.004259	-0.230966	-0.018629	-0.007923	-0.058118	0.002329	-0.012078	-0.032174
0.4495	0.003888	-0.261486	-0.009416	-0.003788	-0.057543	0.005283	-0.017317	-0.036665
0.45	0.001558	-0.289937	0.000534	-0.002506	-0.031174	0.004715	-0.027673	-0.04129
0.4505	-0.000709	-0.305156	0.006548	-0.002397	0.00025	0.001089	-0.044225	-0.047445
0.451	-0.00031	-0.280827	0.008727	-0.001698	0.02024	-0.002265	-0.063701	-0.052835
0.4515	0.001367	-0.196619	0.008971	-0.000503	0.033035	-0.004115	-0.074348	-0.054301
0.452	0.001006	-0.071549	0.007579	-0.000671	0.048451	-0.005563	-0.056411	-0.052279
0.4525	-0.001758	0.054083	0.004543	-0.004012	0.063692	-0.006473	-0.00048	-0.048738
0.453	-0.003954	0.168561	0.001653	-0.008357	0.068039	-0.006615	0.069716	-0.044092
0.4535	-0.003577	0.280351	0.0013	-0.009679	0.060139	-0.006339	0.109337	-0.041187
0.454	-0.002524	0.361247	0.003338	-0.008202	0.049699	-0.005608	0.096759	-0.044236
0.4545	-0.004227	0.355615	0.003958	-0.006198	0.042861	-0.00535	0.05262	-0.050169
0.455	-0.00861	0.261572	-5.7e-05	-0.004147	0.035977	-0.006435	0.007616	-0.05136
0.4555	-0.011509	0.152292	-0.005201	-0.002674	0.023665	-0.007355	-0.030616	-0.046508
0.456	-0.00985	0.097081	-0.004933	-0.001939	0.006543	-0.00544	-0.070055	-0.040192
0.4565	-0.003101	0.094838	0.000337	-0.000813	-0.009617	-0.001234	-0.113086	-0.035885
0.457	0.009195	0.098098	0.004872	-6.5e-05	-0.019405	0.002052	-0.148995	-0.034747
0.4575	0.023883	0.075197	0.00666	-0.001346	-0.023589	0.004265	-0.145902	-0.035726
0.458	0.031294	0.033151	0.007513	-0.003498	-0.029864	0.006334	-0.05447	-0.034362
0.4585	0.024765	-0.002642	0.009207	-0.004363	-0.044389	0.006819	0.133408	-0.028114
0.459	0.010357	-0.017196	0.012164	-0.003986	-0.064648	0.005289	0.324124	-0.02177
0.4595	0.000203	-0.018152	0.013859	-0.003818	-0.080984	0.003541	0.382048	-0.020295
0.46	-0.001414	-0.01984	0.011451	-0.004539	-0.082159	0.003553	0.271435	-0.021291
0.4605	-0.000722	-0.020314	0.006655	-0.004788	-0.063391	0.004971	0.091538	-0.020902
0.461	-0.003724	-0.007817	0.003918	-0.003235	-0.029464	0.005101	-0.040639	-0.019985
0.4615	-0.008741	0.011331	0.005019	-0.000868	0.011855	0.002807	-0.090992	-0.019561
0.462	-0.010735	0.010073	0.00726	0.000515	0.049675	8.1e-05	-0.084307	-0.01873
0.4625	-0.006917	-0.026581	0.007573	0.000122	0.063946	-0.000926	-0.049782	-0.01777
0.463	0.000501	-0.076981	0.007079	-0.001033	0.040292	-0.000954	-0.02283	-0.01596
0.4635	0.006274	-0.096168	0.007609	-0.001688	-0.009639	-0.001711	-0.043306	-0.011916
0.464	0.007639	-0.053696	0.006948	-0.001182	-0.062086	-0.003284	-0.107384	-0.006836
0.4645	0.004913	0.033546	0.002538	0.000845	-0.103679	-0.005118	-0.15134	-0.002384
0.465	0.000757	0.102957	-0.004283	0.002244	-0.123273	-0.006132	-0.11789	0.000418
0.4655	-0.000911	0.094807	-0.010183	0.001155	-0.10607	-0.005243	-0.021433	0.001776
0.466	0.001343	0.013453	-0.012109	-0.000501	-0.055956	-0.002067	0.070824	0.003462
0.4665	0.005421	-0.070187	-0.008285	-0.00056	-0.004164	0.003997	0.097235	0.005675
0.467	0.00741	-0.090198	-0.001053	0.001597	0.020137	0.011473	0.035006	0.007001
0.4675	0.005425	-0.044295	0.004562	0.005084	0.016991	0.015401	-0.083606	0.007208
0.468	0.002334	0.026	0.007433	0.006779	0.006907	0.013128	-0.175015	0.007036
0.4685	0.001601	0.087431	0.009937	0.005166	0.006487	0.007553	-0.161872	0.007235
0.469	0.002218	0.130252	0.012134	0.003318	0.018652	0.00282	-0.051137	0.009889
0.4695	0.001532	0.149347	0.010731	0.003573	0.037663	0.001418	0.069019	0.016208
0.47	7.3e-05	0.138354	0.003658	0.004014	0.054006	0.002426	0.126775	0.024279
0.4705	-0.000478	0.106639	-0.006065	0.003159	0.059557	0.001422	0.130855	0.032751
0.471	-3.8e-05	0.080644	-0.014027	0.001498	0.056695	-0.00217	0.12474	0.039987
0.4715	0.000367	0.075114	-0.020559	-3.1e-05	0.054714	-0.003383	0.118094	0.043519
0.472	-0.00084	0.077137	-0.028772	0.000636	0.056132	-0.000109	0.092008	0.044229
0.4725	-0.003874	0.06911	-0.037445	0.003746	0.056417	0.00527	0.045077	0.042713
0.473	-0.006931	0.051134	-0.041773	0.005731	0.05197	0.009187	0.000509	0.036415
0.4735	-0.008229	0.031887	-0.03997	0.003678	0.043517	0.008923	-0.022546	0.025447
0.474	-0.006805	0.011068	-0.033804	-1.8e-05	0.034252	0.006023	-0.022386	0.01448
0.4745	-0.002388	-0.017398	-0.026108	-0.001013	0.025167	0.003998	-0.007463	0.006023
0.475	0.00339	-0.050682	-0.019131	0.000104	0.015902	0.003705	0.009995	-0.002524
0.4755	0.007276	-0.07939	-0.012417	0.000469	0.009391	0.004744	0.018795	-0.011222
0.476	0.008701	-0.100094	-0.003886	-0.000536	0.011143	0.006086	0.015539	-0.015857
0.4765	0.009707	-0.117266	0.006394	-0.001645	0.023166	0.005613	0.005933	-0.016146
0.477	0.009609	-0.136977	0.014732	-0.000805	0.041385	0.002744	-0.001914	-0.016529
0.4775	0.006247	-0.157571	0.01782	0.000563	0.059559	9e-06	-0.005644	-0.019765
0.478	0.000101	-0.169078	0.017962	-0.000879	0.070699	0.000274	-0.009182	-0.023571
0.4785	-0.006377	-0.163746	0.020429	-0.003289	0.069128	0.002342	-0.014968	-0.023107
0.479	-0.010389	-0.139497	0.027032	-0.00328	0.057009	0.00266	-0.019982	-0.017116
0.4795	-0.010321	-0.099829	0.034503	-0.002214	0.042508	0.001042	-0.020441	-0.009746
0.48	-0.00751	-0.056122	0.036965	-0.001512	0.029927	-0.000607	-0.016465	-0.004316
0.4805	-0.004765	-0.021945	0.030953	0.000183	0.017756	-0.002348	-0.010895	0.000152
0.481	-0.002619	-0.006581	0.019329	0.001757	0.005763	-0.004617	-0.006179	0.00403
0.4815	1.5e-05	-0.013866	0.009522	0.000988	-0.002604	-0.007137	-0.00387	0.005766
0.482	0.002477	-0.035008	0.006942	-0.000678	-0.005215	-0.009736	-0.003784	0.005429
0.4825	0.003441	-0.045187	0.009238	-0.001143	-0.004658	-0.01113	-0.003397	0.005089
0.483	0.003779	-0.025412	0.009716	-0.000479	-0.006435	-0.01045	-0.001334	0.008423
0.4835	0.005464	0.012861	0.00588	0.000401	-0.016292	-0.009495	6.2e-05	0.017641
0.484	0.008188	0.037446	-3.8e-05	0.001039	-0.041416	-0.009981	-0.003324	0.028542
0.4845	0.009997	0.026972	-0.005445	0.00183	-0.084764	-0.011164	-0.013056	0.033879
0.485	0.01059	-0.009397	-0.008416	0.002186	-0.128554	-0.010839	-0.025759	0.031507
0.4855	0.010177	-0.03624	-0.007268	0.000309	-0.138192	-0.008002	-0.036553	0.026962
0.486	0.008422	-0.018722	-0.000996	-0.003385	-0.096532	-0.003808	-0.042672	0.026276
0.4865	0.006543	0.044212	0.009044	-0.005975	-0.025438	0.00178	-0.045194	0.026359
0.487	0.005998	0.113676	0.01817	-0.005174	0.033149	0.007785	-0.049027	0.019406
0.4875	0.004931	0.144088	0.020914	-0.001489	0.053472	0.008813	-0.057373	0.005176
0.488	-0.001854	0.122727	0.016206	0.001789	0.042273	0.003896	-0.068564	-0.008613
0.4885	-0.015425	0.076582	0.0091	0.00167	0.023837	-0.000152	-0.077781	-0.015625
0.489	-0.026816	0.044517	0.005881	-0.000745	0.015793	-0.000303	-0.077688	-0.016167
0.4895	-0.026422	0.044111	0.008444	-0.001517	0.020525	-0.000648	-0.060273	-0.013635
0.49	-0.015921	0.062748	0.012706	6.8e-05	0.032165	-0.00278	-0.021003	-0.010092
0.4905	-0.005424	0.076687	0.013176	0.000929	0.044294	-0.003794	0.034908	-0.007418
0.491	-0.002264	0.074653	0.009358	0.000269	0.052032	-0.002935	0.088444	-0.00709
0.4915	-0.004532	0.06221	0.003337	-0.000177	0.052631	-0.001663	0.115332	-0.005286
0.492	-0.005406	0.048263	-0.004305	-0.000416	0.046287	-0.000664	0.105533	0.005016
0.4925	-0.002766	0.033729	-0.011753	-0.000963	0.035862	-0.000857	0.074434	0.023206
0.493	-3.3e-05	0.016556	-0.017319	-0.001308	0.024875	-0.002684	0.04739	0.038548
0.4935	0.001312	0.001038	-0.022095	-0.002299	0.013453	-0.004406	0.034007	0.040888
0.494	0.001946	-0.009173	-0.026388	-0.004361	-0.00014	-0.004716	0.027387	0.031672
0.4945	0.000146	-0.020603	-0.029586	-0.00556	-0.008616	-0.003766	0.02191	0.021823
0.495	-0.004609	-0.041522	-0.031682	-0.004824	0.002162	-0.000848	0.01857	0.017901
0.4955	-0.00866	-0.070171	-0.031892	-0.001547	0.028713	0.002546	0.017177	0.016805
0.496	-0.009059	-0.094503	-0.030133	0.003497	0.039491	0.002236	0.012595	0.013795
0.4965	-0.006021	-0.102002	-0.02748	0.00535	0.003538	-0.001343	0.000339	0.008874
0.497	-0.001332	-0.092148	-0.023384	0.002292	-0.067713	-0.003756	-0.015881	0.006136
0.4975	0.002606	-0.07745	-0.015196	-0.000198	-0.118028	-0.002739	-0.025864	0.007509
0.498	0.004475	-0.069967	-0.001304	0.000911	-0.107513	0.001401	-0.02364	0.009105
0.4985	0.005526	-0.06513	0.014694	0.001645	-0.075258	0.005685	-0.014025	0.008632
0.499	0.007127	-0.045571	0.024814	-0.000196	-0.100758	0.005861	-0.009225	0.011862
0.4995	0.008697	-0.010219	0.022314	-0.000598	-0.181836	0.001914	-0.017898	0.024718
0.5	0.010089	0.014987	0.007131	0.002401	-0.208367	-0.002223	-0.035823	0.043018
0.5005	0.011739	0.009954	-0.011375	0.005741	-0.106901	-0.003839	-0.052094	0.057663
0.501	0.013169	-0.010567	-0.021807	0.00679	0.050252	-0.002467	-0.060398	0.064251
0.5015	0.013898	-0.019742	-0.021799	0.005442	0.138532	0.001099	-0.058099	0.061657
0.502	0.01387	-0.020139	-0.015734	0.0037	0.127421	0.004389	-0.04419	0.049583
0.5025	0.013609	-0.037035	-0.007636	0.003045	0.080008	0.004273	-0.025056	0.030303
0.503	0.013029	-0.074968	-0.000611	0.00251	0.050994	-0.000415	-0.01568	0.008091
0.5035	0.010512	-0.103166	0.003491	0.001599	0.040684	-0.006874	-0.028906	-0.013965
0.504	0.005315	-0.086751	0.003991	0.00224	0.030879	-0.009944	-0.061492	-0.035119
0.5045	-0.000299	-0.028291	0.000302	0.004939	0.013835	-0.007473	-0.091386	-0.055418
0.505	-0.002951	0.021343	-0.005574	0.005957	-0.018046	-0.002314	-0.094425	-0.074761
0.5055	-0.003037	0.007103	-0.009162	0.003333	-0.071454	0.001033	-0.071344	-0.090982
0.506	-0.00365	-0.063776	-0.009343	0.000511	-0.127546	0.000665	-0.054988	-0.100021
0.5065	-0.004881	-0.122046	-0.009429	0.000211	-0.145772	-0.001414	-0.08214	-0.097613
0.507	-0.005665	-0.114515	-0.01169	0.000876	-0.109631	-0.001871	-0.159658	-0.07826
0.5075	-0.006667	-0.052446	-0.014473	0.00018	-0.051247	0.001567	-0.246008	-0.042678
0.507999999999999	-0.007374	0.021708	-0.013678	-0.001773	-0.014254	0.0081	-0.250135	-0.006017
0.508499999999999	-0.006647	0.080124	-0.00587	-0.003505	-0.008323	0.012969	-0.09271	0.014834
0.508999999999999	-0.005373	0.112883	0.008374	-0.004092	-0.015258	0.01233	0.175038	0.017645
0.509499999999999	-0.004369	0.117728	0.023313	-0.004086	-0.019131	0.008196	0.357715	0.009613
0.509999999999999	-0.003268	0.105469	0.031699	-0.004852	-0.015363	0.00511	0.303742	-0.003835
0.510499999999999	-0.002135	0.099313	0.031403	-0.005383	-0.005186	0.003691	0.079177	-0.018222
0.510999999999999	-0.001828	0.118125	0.027362	-0.00408	0.00927	0.001489	-0.118	-0.030124
0.511499999999999	-0.00397	0.16245	0.02523	-0.00303	0.025917	-0.002163	-0.165468	-0.041331
0.511999999999999	-0.009016	0.208626	0.024995	-0.003869	0.040347	-0.005376	-0.063101	-0.055059
0.512499999999999	-0.014214	0.217002	0.024141	-0.004622	0.04822	-0.005413	0.13963	-0.069308
0.512999999999999	-0.016375	0.167656	0.022801	-0.004213	0.051496	-0.002506	0.352122	-0.076649
0.513499999999999	-0.014391	0.090762	0.021261	-0.004071	0.055855	-0.001291	0.449555	-0.071147
0.513999999999999	-0.009439	0.0387	0.018057	-0.004816	0.060978	-0.004062	0.379667	-0.054905
0.514499999999999	-0.004695	0.028491	0.013018	-0.005309	0.060618	-0.00707	0.225708	-0.035165
0.514999999999999	-0.001598	0.032728	0.00794	-0.005617	0.053296	-0.006273	0.102237	-0.01878
0.515499999999999	0.000577	0.02446	0.003918	-0.00721	0.045302	-0.002699	0.034787	-0.009704
0.515999999999999	0.000634	0.007416	0.000694	-0.009415	0.042668	-0.000184	-0.016537	-0.006033
0.516499999999999	-0.00227	-0.004844	-0.00204	-0.009192	0.045184	0.000884	-0.07223	-0.001423
0.516999999999998	-0.005183	-0.014998	-0.004033	-0.005518	0.042809	0.004036	-0.118406	0.00692
0.517499999999998	-0.005093	-0.032524	-0.004317	-0.001584	0.016379	0.010783	-0.137147	0.014737
0.517999999999998	-0.00293	-0.057605	-0.00283	0.000608	-0.040092	0.017356	-0.117241	0.017027
0.518499999999998	-0.001564	-0.081994	-0.001773	0.002756	-0.09281	0.019188	-0.061816	0.012484
0.518999999999998	-0.001918	-0.094522	-0.003518	0.00469	-0.091642	0.016692	-0.001203	0.004402
0.519499999999998	-0.002078	-0.088172	-0.007674	0.004277	-0.03218	0.013564	0.035919	0.001788
0.519999999999998	0.000415	-0.063777	-0.010552	0.002054	0.033392	0.011957	0.065068	0.010305
0.520499999999998	0.005326	-0.026411	-0.009036	0.00128	0.057448	0.010313	0.11253	0.024176
0.520999999999998	0.010352	0.012583	-0.004666	0.00352	0.042879	0.005306	0.14885	0.034786
0.521499999999998	0.013715	0.033562	-0.001554	0.005991	0.01945	-0.00321	0.115708	0.040667
0.521999999999998	0.014714	0.023419	-0.001862	0.006216	0.000264	-0.011409	0.016475	0.047396
0.522499999999998	0.014279	-0.0059	-0.004476	0.005614	-0.019124	-0.015303	-0.079426	0.061109
0.522999999999998	0.013485	-0.025927	-0.007169	0.006564	-0.03474	-0.014512	-0.126964	0.081005
0.523499999999998	0.011954	-0.023664	-0.009074	0.009105	-0.032824	-0.011468	-0.146819	0.097494
0.523999999999998	0.009798	-0.013221	-0.010109	0.011407	-0.013518	-0.00767	-0.169162	0.100716
0.524499999999998	0.00766	-0.011976	-0.010187	0.012466	0.00474	-0.004655	-0.179364	0.092233
0.524999999999998	0.006114	-0.018656	-0.010092	0.011253	0.009638	-0.003413	-0.135641	0.080809
0.525499999999998	0.006099	-0.022048	-0.010811	0.00689	0.007248	-0.001781	-0.028708	0.068473
0.525999999999997	0.006531	-0.019997	-0.012031	0.002012	0.006925	0.001122	0.084982	0.051457
0.526499999999997	0.005218	-0.018424	-0.013069	-0.00031	0.008389	0.002573	0.123882	0.029743
0.526999999999997	0.002414	-0.018043	-0.013529	-0.000756	0.007089	0.000765	0.06714	0.008362
0.527499999999997	-0.000967	-0.01336	-0.012562	-0.000978	0.004105	-0.003368	-0.018056	-0.008766
0.527999999999997	-0.004532	-0.003732	-0.010301	-0.00078	0.006211	-0.007882	-0.056938	-0.023347
0.528499999999997	-0.006898	0.003093	-0.00937	-0.000544	0.017299	-0.010641	-0.052235	-0.037726
0.528999999999997	-0.00842	-3.4e-05	-0.012377	-0.001326	0.032362	-0.010787	-0.055947	-0.048205
0.529499999999997	-0.0119	-0.009723	-0.018346	-0.002509	0.042333	-0.009489	-0.078496	-0.050087
0.529999999999997	-0.016445	-0.014464	-0.023252	-0.004352	0.043865	-0.006715	-0.066951	-0.045638
0.530499999999997	-0.01743	-0.011157	-0.023437	-0.006996	0.040288	-0.001813	0.025255	-0.040494
0.530999999999997	-0.013572	-0.010338	-0.018038	-0.007697	0.03382	0.003055	0.165267	-0.035922
0.531499999999997	-0.007973	-0.018741	-0.009191	-0.005288	0.023977	0.005355	0.254476	-0.026422
0.531999999999997	-0.003954	-0.030034	-0.00061	-0.002249	0.015808	0.004936	0.227295	-0.00486
0.532499999999997	-0.002686	-0.036417	0.004373	-0.000833	0.021775	0.003063	0.120621	0.026364
0.532999999999997	-0.003447	-0.038541	0.004977	-0.000651	0.049349	0.000706	0.022956	0.052861
0.533499999999997	-0.004811	-0.043941	0.00344	-0.000478	0.088664	-0.001507	-0.025214	0.060587
0.533999999999997	-0.006281	-0.059809	0.002698	9.5e-05	0.114398	-0.002641	-0.0489	0.049621
0.534499999999997	-0.007853	-0.083949	0.00389	0.00106	0.10373	-0.002803	-0.078247	0.033755
0.534999999999996	-0.007188	-0.102894	0.006722	0.001117	0.058434	-0.002866	-0.115739	0.025798
0.535499999999996	-0.002811	-0.103954	0.010773	-0.000429	0.005898	-0.002493	-0.154433	0.028435
0.535999999999996	0.001522	-0.088097	0.014661	-0.001418	-0.026112	-0.00084	-0.177746	0.035223
0.536499999999996	0.002375	-0.068334	0.015986	-0.001642	-0.029973	0.002717	-0.139086	0.03339
0.536999999999996	0.001762	-0.057887	0.01372	-0.003293	-0.014805	0.008841	-0.001946	0.012875
0.537499999999996	0.002816	-0.059591	0.009754	-0.005411	0.003114	0.016038	0.175426	-0.022038
0.537999999999996	0.004966	-0.064337	0.007389	-0.006023	0.004789	0.020141	0.253385	-0.05155
0.538499999999996	0.006794	-0.058767	0.00832	-0.005146	-0.020962	0.018576	0.160375	-0.055372
0.538999999999996	0.009915	-0.034422	0.011671	-0.003375	-0.061797	0.012862	-0.009503	-0.033363
0.539499999999996	0.015041	0.00597	0.015179	-0.002338	-0.081773	0.006103	-0.105248	-0.00713
0.539999999999996	0.018687	0.051452	0.016625	-0.002826	-0.052189	-0.000347	-0.090447	0.001883
0.540499999999996	0.017405	0.095614	0.015758	-0.003233	0.010419	-0.006094	-0.047477	-0.009241
0.540999999999996	0.011357	0.138291	0.015029	-0.002983	0.056943	-0.009443	-0.046144	-0.029528
0.541499999999996	0.003087	0.171975	0.017655	-0.002262	0.069831	-0.009499	-0.07761	-0.047479
0.541999999999996	-0.004411	0.178618	0.024322	2.6e-05	0.085092	-0.008206	-0.109811	-0.056288
0.542499999999996	-0.008174	0.146769	0.030778	0.003023	0.121548	-0.007214	-0.144764	-0.055324
0.542999999999996	-0.007309	0.088841	0.030718	0.004034	0.121542	-0.005665	-0.193455	-0.049344
0.543499999999996	-0.004472	0.035319	0.022151	0.003654	0.02063	-0.002557	-0.227892	-0.044979
0.543999999999995	-0.002428	0.009069	0.00986	0.00399	-0.139962	0.001316	-0.205223	-0.048614
0.544499999999995	-0.001306	0.007334	0.001433	0.004236	-0.241588	0.00337	-0.13581	-0.060022
0.544999999999995	0.000116	0.011474	-0.000163	0.003737	-0.230256	0.00191	-0.074908	-0.067825
0.545499999999995	0.002316	0.011141	0.001254	0.003756	-0.167503	-0.000339	-0.03621	-0.060947
0.545999999999995	0.005017	0.010238	0.001126	0.003791	-0.131718	-0.00014	0.022911	-0.042766
0.546499999999995	0.008263	0.012012	-0.000841	0.002516	-0.1267	0.000249	0.10677	-0.027659
0.546999999999995	0.011305	0.012511	-0.002185	0.001402	-0.11081	-0.002776	0.146351	-0.026282
0.547499999999995	0.013035	0.009762	-0.001357	0.002165	-0.071544	-0.007026	0.100477	-0.037532
0.547999999999995	0.013316	0.007294	0.001058	0.003845	-0.03291	-0.007579	0.026824	-0.049474
0.548499999999995	0.012132	0.007639	0.003297	0.004228	-0.008767	-0.003686	0.005222	-0.046395
0.548999999999995	0.010609	0.009435	0.00401	0.001866	0.011629	0.001736	0.038419	-0.021305
0.549499999999995	0.010793	0.009413	0.002956	-0.001276	0.031653	0.005736	0.073471	0.016978
0.549999999999995	0.01205	0.00598	0.000487	-0.001443	0.032747	0.007025	0.08481	0.049535
0.550499999999995	0.01141	0.001148	-0.002281	0.001331	0.003963	0.006625	0.083259	0.061238
0.550999999999995	0.008518	-0.002131	-0.003647	0.003575	-0.032229	0.006547	0.064826	0.050901
0.551499999999995	0.005578	-0.002782	-0.003287	0.003312	-0.039888	0.007137	0.014443	0.029595
0.551999999999995	0.00209	-0.00228	-0.002829	0.001381	-0.007772	0.006454	-0.040276	0.011408
0.552499999999995	-0.003233	-0.00229	-0.003782	-0.001273	0.041082	0.003384	-0.040229	0.002467
0.552999999999994	-0.008393	-0.002538	-0.00573	-0.003235	0.069183	0.000139	0.023768	-0.001699
0.553499999999994	-0.01133	-0.002785	-0.007359	-0.002957	0.05342	-0.000264	0.087753	-0.008161
0.553999999999994	-0.012365	-0.003626	-0.008635	-0.001954	0.004717	0.001402	0.093485	-0.019045
0.554499999999994	-0.013157	-0.005405	-0.009921	-0.001975	-0.038889	0.00042	0.054048	-0.027357
0.554999999999994	-0.013743	-0.007613	-0.010535	-0.002142	-0.043491	-0.005377	0.021446	-0.020537
0.555499999999994	-0.012185	-0.008099	-0.009836	-0.002168	-0.010059	-0.011842	0.019099	0.006298
0.555999999999994	-0.010017	-0.005519	-0.008402	-0.003454	0.027315	-0.013752	0.028143	0.042601
0.556499999999994	-0.011571	-0.002864	-0.00779	-0.004994	0.038799	-0.01073	0.022165	0.070845
0.556999999999994	-0.016398	-0.003938	-0.008261	-0.003874	0.027295	-0.007092	-0.004814	0.080026
0.557499999999994	-0.018681	-0.007074	-0.00885	-0.001335	0.014579	-0.005984	-0.04064	0.071501
0.557999999999994	-0.015711	-0.008054	-0.009892	-0.000805	0.010191	-0.005206	-0.068251	0.059449
0.558499999999994	-0.011406	-0.006996	-0.010994	-0.001972	0.005635	-0.000876	-0.066994	0.060508
0.558999999999994	-0.009395	-0.006614	-0.010209	-0.001888	-0.007165	0.006633	-0.020189	0.074319
0.559499999999994	-0.009415	-0.007794	-0.007815	0.000569	-0.025542	0.011604	0.056977	0.082046
0.559999999999994	-0.009566	-0.009935	-0.006349	0.002174	-0.041435	0.009884	0.118195	0.06718
0.560499999999994	-0.008092	-0.012858	-0.007646	0.000679	-0.045824	0.004539	0.132465	0.032581
0.560999999999994	-0.005095	-0.01705	-0.010345	-0.000676	-0.027929	0.000344	0.099603	-0.00611
0.561499999999994	-0.002737	-0.022033	-0.009775	2.3e-05	0.018982	-0.001893	0.009114	-0.0397
0.561999999999994	-0.002755	-0.026049	-0.004466	0.000824	0.080626	-0.003574	-0.161036	-0.067484
0.562499999999993	-0.003529	-0.027121	0.00027	0.000613	0.117972	-0.005466	-0.372076	-0.086392
0.562999999999993	-0.002079	-0.024741	0.000613	-0.000614	0.10195	-0.007331	-0.509589	-0.090516
0.563499999999993	0.001186	-0.020814	-0.000735	-0.002309	0.051463	-0.008461	-0.488716	-0.077134
0.563999999999993	0.003787	-0.017118	-0.000597	-0.003541	0.012684	-0.007549	-0.324573	-0.049415
0.564499999999993	0.005414	-0.013395	0.000455	-0.00409	0.0042	-0.003661	-0.072317	-0.01722
0.564999999999993	0.007542	-0.009371	0.000333	-0.003147	0.007959	0.001882	0.215983	0.007987
0.565499999999993	0.009964	-0.006645	-0.001424	0.000279	0.004955	0.006134	0.436838	0.027175
0.565999999999993	0.010409	-0.00624	-0.002914	0.00406	-0.003189	0.008234	0.45577	0.05463
0.566499999999993	0.009097	-0.006472	-0.002395	0.005213	-0.004952	0.009574	0.271445	0.094445
0.566999999999993	0.009409	-0.005358	-0.001056	0.004651	0.002285	0.009323	0.07572	0.128148
0.567499999999993	0.011943	-0.002366	-0.00118	0.004373	0.011818	0.005815	0.052974	0.13553
0.567999999999993	0.013965	0.001099	-0.002571	0.00373	0.019272	0.000496	0.171334	0.118526
0.568499999999993	0.013638	0.002457	-0.002875	0.002294	0.024212	-0.004137	0.253338	0.09507
0.568999999999993	0.010374	0.001778	-0.000923	0.001575	0.025086	-0.007358	0.204986	0.072856
0.569499999999993	0.005287	0.002003	0.000915	0.001716	0.020921	-0.008761	0.088925	0.041077
0.569999999999993	0.001318	0.003808	0.000461	0.001396	0.014334	-0.007368	0.004787	-0.008375
0.570499999999993	-0.000646	0.0048	-0.000407	0.001368	0.007522	-0.004972	-0.013809	-0.063491
0.570999999999993	-0.002256	0.004866	-0.000123	0.002353	0.001435	-0.004471	0.006899	-0.105774
0.571499999999992	-0.004118	0.006254	-9e-06	0.003077	-0.000726	-0.004989	0.021834	-0.131245
0.571999999999992	-0.005949	0.008148	-0.00079	0.004007	0.003767	-0.004427	0.001686	-0.148843
0.572499999999992	-0.007362	0.007703	-0.001822	0.00528	0.015223	-0.002141	-0.038905	-0.169097
0.572999999999992	-0.007467	0.00497	-0.00286	0.004631	0.031395	0.000988	-0.056585	-0.19381
0.573499999999992	-0.006568	0.002137	-0.004283	0.002646	0.042341	0.002201	-0.02988	-0.205811
0.573999999999992	-0.00499	0.000269	-0.005757	0.001367	0.033738	0.000487	0.031026	-0.181553
0.574499999999992	-0.001499	-0.00045	-0.006298	-1.9e-05	0.004139	-0.000486	0.111635	-0.123213
0.574999999999992	0.002554	0.000699	-0.005906	-0.001997	-0.026891	0.002603	0.18165	-0.063149
0.575499999999992	0.00295	0.003854	-0.00496	-0.002769	-0.035911	0.006934	0.177416	-0.029841
0.575999999999992	-0.000428	0.007351	-0.00322	-0.001664	-0.019581	0.008204	0.069761	-0.021666
0.576499999999992	-0.002838	0.009684	-0.000783	-0.000376	0.003	0.007969	-0.061887	-0.017529
0.576999999999992	-0.00194	0.010871	0.001402	0.000317	0.011277	0.009925	-0.103849	-0.0006
0.577499999999992	4e-06	0.009712	0.001802	0.001631	0.003806	0.012841	-0.048942	0.03103
0.577999999999992	0.000453	0.003404	-8.1e-05	0.003683	-0.005276	0.011918	0.014032	0.066202
0.578499999999992	-0.000231	-0.007151	-0.001788	0.004125	-0.00696	0.00606	0.035246	0.089543
0.578999999999992	0.000503	-0.016391	-0.000944	0.001986	-0.005493	-4e-06	0.041408	0.095917
0.579499999999992	0.003367	-0.020268	0.001292	-7.7e-05	-0.007109	-0.002327	0.04659	0.094489
0.579999999999992	0.005486	-0.019485	0.003652	-0.000785	-0.010184	-0.001554	0.020544	0.090927
0.580499999999991	0.004171	-0.017578	0.006516	-0.001451	-0.010442	-0.000401	-0.039709	0.078873
0.580999999999991	0.000535	-0.017896	0.008541	-0.001794	-0.009256	-0.00112	-0.085449	0.056259
0.581499999999991	-0.002218	-0.022754	0.007439	-0.001379	-0.010573	-0.00338	-0.083548	0.032413
0.581999999999991	-0.002392	-0.032808	0.003254	-0.001476	-0.01433	-0.004541	-0.056279	0.017249
0.582499999999991	-0.000615	-0.041418	-0.00128	-0.002345	-0.017348	-0.003828	-0.043283	0.015365
0.582999999999991	0.000347	-0.03451	-0.003022	-0.002537	-0.01814	-0.00268	-0.055698	0.027984
0.583499999999991	-0.000919	-0.005051	-0.001566	-0.00161	-0.017221	-0.000541	-0.076153	0.049616
0.583999999999991	-0.001114	0.034692	0.001079	-0.000371	-0.014984	0.003703	-0.086995	0.06726
0.584499999999991	0.001409	0.060988	0.003086	0.000758	-0.013329	0.008087	-0.086067	0.076075
0.584999999999991	0.002421	0.059646	0.003781	0.000346	-0.013902	0.009852	-0.079842	0.084577
0.585499999999991	-0.000386	0.037369	0.003476	-0.002285	-0.014306	0.008258	-0.072537	0.095301
0.585999999999991	-0.003782	0.013338	0.002739	-0.003843	-0.012516	0.004558	-0.06459	0.09795
0.586499999999991	-0.005569	0.003171	0.001884	-0.00174	-0.010937	0.001114	-0.058825	0.08706
0.586999999999991	-0.006343	0.009431	0.001234	0.000835	-0.012129	-0.00046	-0.061893	0.072835
0.587499999999991	-0.005838	0.023899	0.001452	-6e-05	-0.014544	-0.001113	-0.075209	0.069363
0.587999999999991	-0.003563	0.035791	0.003192	-0.001824	-0.015267	-0.003017	-0.091631	0.079171
0.588499999999991	0.000176	0.036844	0.005531	-0.000682	-0.013976	-0.005777	-0.104338	0.092913
0.588999999999991	0.003927	0.025793	0.006485	0.001626	-0.012497	-0.007386	-0.112618	0.099921
0.58949999999999	0.004834	0.011581	0.006416	0.002229	-0.011724	-0.008192	-0.119121	0.094434
0.58999999999999	0.002614	0.005737	0.007175	0.000134	-0.009875	-0.008956	-0.125723	0.074544
0.59049999999999	0.000157	0.009752	0.008129	-0.003267	-0.006209	-0.008361	-0.132677	0.043964
0.59099999999999	-0.000478	0.014867	0.007648	-0.004354	-0.003936	-0.005901	-0.132036	0.012527
0.59149999999999	0.001139	0.013927	0.005926	-0.001835	-0.005973	-0.003116	-0.093883	-0.011693
0.59199999999999	0.003918	0.0085	0.00382	0.001527	-0.009567	-0.000919	0.015736	-0.030355
0.59249999999999	0.006188	0.004053	0.00256	0.002419	-0.008135	0.00066	0.174096	-0.053877
0.59299999999999	0.008193	0.001369	0.003005	0.000706	9.4e-05	0.000559	0.284805	-0.084394
0.59349999999999	0.010561	-0.003005	0.003828	-0.00142	0.010494	-0.001405	0.267568	-0.100364
0.59399999999999	0.011529	-0.008084	0.003534	-0.002502	0.019547	-0.00389	0.152644	-0.076807
0.59449999999999	0.009556	-0.006851	0.002073	-0.002214	0.027428	-0.007222	0.03623	-0.02349
0.59499999999999	0.006097	0.005031	0.000188	-0.00223	0.034157	-0.010965	-0.046846	0.017371
0.59549999999999	0.003545	0.020509	-0.000437	-0.004077	0.036773	-0.011006	-0.136406	0.018803
0.59599999999999	0.002857	0.025561	0.001933	-0.00555	0.032133	-0.004552	-0.232151	-0.006501
0.59649999999999	0.003535	0.015873	0.006529	-0.00526	0.022189	0.006007	-0.253368	-0.034732
0.59699999999999	0.004353	0.001974	0.0092	-0.005177	0.013069	0.015755	-0.153815	-0.057464
0.59749999999999	0.003795	-0.00457	0.007659	-0.005362	0.008971	0.020107	-0.011534	-0.07583
0.59799999999999	0.001411	-0.003497	0.00599	-0.003985	0.010618	0.01679	0.052478	-0.091298
0.598499999999989	-0.000976	-0.002107	0.008142	-0.001663	0.01795	0.009546	0.005498	-0.105485
0.598999999999989	-0.001971	-0.003966	0.011344	6.8e-05	0.02839	0.004605	-0.086279	-0.116305
0.599499999999989	-0.002587	-0.006841	0.01145	0.001404	0.035606	0.001865	-0.138493	-0.116366
0.599999999999989	-0.003176	-0.008251	0.009183	0.002224	0.03556	-0.001569	-0.113831	-0.102291
0.600499999999989	-0.003108	-0.008532	0.006775	0.001265	0.030745	-0.004139	-0.041869	-0.081052
0.600999999999989	-0.0034	-0.009506	0.003806	-0.000974	0.025635	-0.004143	0.007117	-0.063737
0.601499999999989	-0.004184	-0.011523	-0.000253	-0.001838	0.020973	-0.003861	-0.015971	-0.054444
0.601999999999989	-0.003288	-0.013491	-0.004439	-0.000402	0.015258	-0.005171	-0.093693	-0.048454
0.602499999999989	-0.000792	-0.013996	-0.010281	0.001393	0.009685	-0.006331	-0.149649	-0.043231
0.602999999999989	0.000571	-0.01204	-0.022218	0.002284	0.00717	-0.005335	-0.103219	-0.043488
0.603499999999989	-0.000271	-0.009032	-0.040044	0.002593	0.006671	-0.002202	0.049999	-0.050938
0.603999999999989	-0.001794	-0.007685	-0.054517	0.002164	0.004685	0.002278	0.205966	-0.056994
0.604499999999989	-0.002811	-0.008461	-0.053833	0.001012	0.001885	0.005935	0.240248	-0.052477
0.604999999999989	-0.004057	-0.008778	-0.034255	0.000212	0.001675	0.006791	0.145603	-0.040703
0.605499999999989	-0.00566	-0.006149	-0.004314	0.000301	0.003892	0.006728	0.063188	-0.032257
0.605999999999989	-0.005866	-0.002146	0.020383	0.000639	0.004616	0.008182	0.146676	-0.030215
0.606499999999989	-0.003885	1e-05	0.025935	0.000694	0.001129	0.009705	0.374619	-0.029031
0.606999999999989	-0.001714	0.001148	0.011698	0.000514	-0.005602	0.009497	0.532249	-0.023897
0.607499999999988	-0.001106	0.004177	0.001067	-0.000548	-0.011904	0.008416	0.435277	-0.016028
0.607999999999988	-0.001067	0.007605	0.027318	-0.002499	-0.014403	0.006094	0.142286	-0.009756
0.608499999999988	-0.000822	0.006719	0.093806	-0.003067	-0.013782	0.000138	-0.124393	-0.006091
0.608999999999988	-0.001025	0.000612	0.159791	-0.001516	-0.013761	-0.008616	-0.229846	-0.0016
0.609499999999988	-0.001314	-0.006868	0.178531	-0.000213	-0.016978	-0.015497	-0.21358	0.006928
0.609999999999988	-0.000646	-0.011686	0.139517	-0.000718	-0.022778	-0.017235	-0.165589	0.018819
0.610499999999988	0.000803	-0.012413	0.066124	-0.001572	-0.028112	-0.015666	-0.118819	0.030799
0.610999999999988	0.00237	-0.010484	-0.010578	-0.001159	-0.030894	-0.014758	-0.067525	0.039861
0.611499999999988	0.003563	-0.009215	-0.064738	-0.000104	-0.030999	-0.014451	-0.01339	0.042442
0.611999999999988	0.003294	-0.010435	-0.084881	0.001413	-0.029165	-0.012666	0.041062	0.034381
0.612499999999988	0.002045	-0.01175	-0.083567	0.00357	-0.027432	-0.010161	0.106816	0.015649
0.612999999999988	0.001598	-0.011082	-0.082642	0.005034	-0.027752	-0.007739	0.183995	-0.004883
0.613499999999988	0.001243	-0.010248	-0.087085	0.004874	-0.028666	-0.003828	0.240694	-0.014285
0.613999999999988	-0.000361	-0.00989	-0.085918	0.003193	-0.027099	0.002074	0.239125	-0.008567
0.614499999999988	-0.003002	-0.008412	-0.072921	0.001581	-0.023287	0.006539	0.175123	0.00579
0.614999999999988	-0.006162	-0.006422	-0.052863	0.002282	-0.01988	0.006122	0.084382	0.021155
0.615499999999988	-0.00835	-0.005462	-0.033002	0.00368	-0.017332	0.003076	0.020373	0.031745
0.615999999999988	-0.007586	-0.00528	-0.021101	0.002253	-0.013906	0.00219	0.017355	0.034605
0.616499999999988	-0.004177	-0.006043	-0.025268	-0.00077	-0.00968	0.003296	0.054747	0.033719
0.616999999999987	-0.000785	-0.009057	-0.0446	-0.002214	-0.006849	0.002662	0.077214	0.036684
0.617499999999987	0.000605	-0.012534	-0.067358	-0.002314	-0.006725	-0.000205	0.064444	0.045701
0.617999999999987	3.2e-05	-0.012713	-0.085887	-0.001788	-0.009603	-0.003427	0.042888	0.05645
0.618499999999987	-0.001656	-0.010417	-0.104143	-0.000516	-0.014083	-0.006573	0.028581	0.062393
0.618999999999987	-0.0035	-0.009113	-0.124672	0.00072	-0.01695	-0.008947	0.014476	0.059458
0.619499999999987	-0.00505	-0.009217	-0.139637	0.001755	-0.017478	-0.009743	0.000403	0.052581
0.619999999999987	-0.006298	-0.008756	-0.141452	0.00223	-0.017321	-0.009952	-0.017226	0.053696
0.620499999999987	-0.006358	-0.007006	-0.129037	0.001145	-0.017224	-0.010226	-0.048747	0.068452
0.620999999999987	-0.004237	-0.005694	-0.097914	1.2e-05	-0.018153	-0.010336	-0.070065	0.088885
0.621499999999987	-0.000498	-0.005133	-0.039612	0.001015	-0.021268	-0.009808	-0.05504	0.101412
0.621999999999987	0.002808	-0.002955	0.045022	0.002457	-0.025068	-0.006463	-0.072614	0.099311
0.622499999999987	0.003461	0.001276	0.141362	0.001485	-0.02638	0.001276	-0.222071	0.088189
0.622999999999987	0.001434	0.00596	0.2247	-0.000184	-0.024703	0.010243	-0.435216	0.082159
0.623499999999987	-0.000734	0.010596	0.265683	0.001095	-0.022062	0.015508	-0.506139	0.088674
0.623999999999987	-0.001297	0.014805	0.248794	0.004518	-0.019211	0.016076	-0.361566	0.095271
0.624499999999987	-0.000973	0.017192	0.191308	0.006213	-0.015534	0.01395	-0.135517	0.079844
0.624999999999987	-0.000787	0.016914	0.132636	0.004611	-0.010768	0.011302	0.040895	0.03545
0.625499999999987	-0.000445	0.014629	0.101108	0.001509	-0.005002	0.010369	0.14277	-0.022152
0.625999999999986	0.000496	0.012075	0.097534	-0.000473	0.002282	0.011463	0.144167	-0.074009
0.626499999999986	0.001009	0.011222	0.109658	0.000227	0.011547	0.011165	0.008869	-0.118051
0.626999999999986	0.00033	0.012621	0.124246	0.002879	0.019739	0.006963	-0.176334	-0.164203
0.627499999999986	-0.000617	0.014401	0.122954	0.004388	0.021869	0.002212	-0.221651	-0.211193
0.627999999999986	-0.001505	0.014099	0.091602	0.003128	0.018215	0.000716	-0.04757	-0.236315
0.628499999999986	-0.002245	0.011678	0.037525	0.000998	0.013984	0.000762	0.207489	-0.219681
0.628999999999986	-0.001344	0.00894	-0.017876	-0.000185	0.01277	0.000699	0.334625	-0.174552
0.629499999999986	0.001447	0.006239	-0.061068	-0.000874	0.014785	0.002621	0.263827	-0.135067
0.629999999999986	0.003859	0.0029	-0.092614	-0.002033	0.018206	0.007262	0.096188	-0.113559
0.630499999999986	0.003786	-0.000441	-0.114682	-0.003896	0.020439	0.012222	-0.03243	-0.090045
0.630999999999986	0.002105	-0.002365	-0.121357	-0.006497	0.019834	0.014774	-0.065846	-0.048452
0.631499999999986	0.001974	-0.002503	-0.107098	-0.009011	0.016629	0.013466	-0.021597	-0.001549
0.631999999999986	0.003666	-0.002037	-0.077212	-0.00885	0.012876	0.008718	0.055156	0.029015
0.632499999999986	0.004289	-0.001865	-0.042213	-0.005304	0.011257	0.002503	0.10612	0.038028
0.632999999999986	0.003661	-0.001808	-0.008969	-0.002146	0.012692	-0.003432	0.083386	0.035791
0.633499999999986	0.003526	-0.002251	0.016772	-0.002095	0.015072	-0.008064	-0.002027	0.034885
0.633999999999986	0.00327	-0.003083	0.025693	-0.003221	0.015626	-0.009794	-0.07686	0.039454
0.634499999999986	0.002536	-0.00257	0.01103	-0.003276	0.013913	-0.007682	-0.07352	0.044847
0.634999999999985	0.002945	-0.000612	-0.020981	-0.001859	0.011458	-0.003435	0.003429	0.047692
0.635499999999985	0.004049	0.000179	-0.052884	0.000595	0.009848	-1.7e-05	0.083368	0.050967
0.635999999999985	0.003753	-0.001085	-0.070083	0.002316	0.009797	0.00125	0.099395	0.058445
0.636499999999985	0.002882	-0.001821	-0.070776	0.001911	0.011042	0.001421	0.050083	0.069919
0.636999999999985	0.003482	-0.00093	-0.062336	0.001029	0.011885	0.001048	-0.008628	0.081493
0.637499999999985	0.004468	0.000278	-0.051943	0.001542	0.010642	-0.000434	-0.028821	0.086433
0.637999999999985	0.003754	0.001535	-0.042127	0.002553	0.008807	-0.001993	-0.018127	0.079514
0.638499999999985	0.001868	0.001883	-0.032975	0.002718	0.009541	-0.002571	-0.01775	0.064286
0.638999999999985	0.000292	0.00016	-0.027357	0.001654	0.012802	-0.003382	-0.04647	0.050013
0.639499999999985	-0.000706	-0.00178	-0.031325	0.000133	0.015243	-0.005153	-0.083596	0.040418
0.639999999999985	-0.001181	-0.002182	-0.043857	-0.0001	0.015481	-0.006074	-0.103045	0.032463
0.640499999999985	-0.001609	-0.002071	-0.04836	0.001294	0.015218	-0.004349	-0.104622	0.024708
0.640999999999985	-0.002628	-0.002229	-0.027892	0.00261	0.015198	-0.000761	-0.104237	0.018174
0.641499999999985	-0.003139	-0.001872	0.008442	0.002238	0.015126	0.001887	-0.107622	0.012393
0.641999999999985	-0.002261	-0.001049	0.032105	0.001143	0.015073	0.001499	-0.10965	0.00853
0.642499999999985	-0.000625	-0.000763	0.032257	0.00076	0.014739	-0.000206	-0.107024	0.009494
0.642999999999985	0.001225	-0.000859	0.02602	0.001015	0.014249	0.000253	-0.084088	0.014529
0.643499999999985	0.001934	-0.000232	0.02796	0.002572	0.014573	0.003134	-0.004876	0.019188
0.643999999999984	0.000549	0.001139	0.03124	0.004328	0.015564	0.006564	0.129329	0.01907
0.644499999999984	-0.001368	0.002166	0.025365	0.00343	0.015276	0.009078	0.230443	0.014639
0.644999999999984	-0.002238	0.002332	0.013257	0.001227	0.012769	0.008948	0.203745	0.011766
0.645499999999984	-0.001817	0.001952	0.003601	0.00109	0.009491	0.005385	0.076143	0.01433
0.645999999999984	-1.3e-05	0.001482	0.000467	0.001938	0.006938	0.000796	-0.029441	0.020572
0.646499999999984	0.002492	0.000629	0.004346	0.000192	0.005471	-0.001287	-0.050242	0.029081
0.646999999999984	0.003789	-0.001605	0.013232	-0.003509	0.004615	-0.000294	-0.038321	0.040896
0.647499999999984	0.002879	-0.00465	0.019556	-0.005012	0.004039	0.001523	-0.051675	0.052456
0.647999999999984	0.00046	-0.005884	0.012278	-0.002283	0.003791	0.001678	-0.070382	0.057809
0.648499999999984	-0.002323	-0.003935	-0.012732	0.002562	0.002561	-0.000816	-0.049914	0.058975
0.648999999999984	-0.003162	-0.000948	-0.047437	0.004959	-0.000405	-0.003962	0.001272	0.06303
0.649499999999984	-0.000664	-0.000174	-0.080313	0.003394	-0.002768	-0.004919	0.035328	0.072459
0.649999999999984	0.002125	-0.001532	-0.104741	0.000806	-0.002203	-0.00423	0.028719	0.082501
0.650499999999984	0.001997	-0.002222	-0.118379	-0.000703	0.000843	-0.00403	0.002724	0.083219
0.650999999999984	6.8e-05	-0.001164	-0.125915	-0.001286	0.003942	-0.004303	-0.012715	0.066954
0.651499999999984	-0.001543	0.000564	-0.143855	-0.001333	0.004449	-0.004533	-0.012319	0.036851
0.651999999999984	-0.002595	0.002231	-0.182645	-0.000999	0.002028	-0.005445	-0.007821	0.00286
0.652499999999984	-0.003112	0.004271	-0.212414	-0.000843	-0.000479	-0.006755	-0.00547	-0.029648
0.652999999999983	-0.0031	0.006562	-0.169533	-0.001101	-0.000601	-0.006341	-0.002388	-0.060603
0.653499999999983	-0.003004	0.007789	-0.023365	-0.001009	0.000793	-0.003688	0.002644	-0.088627
0.653999999999983	-0.002762	0.007995	0.173382	-0.00054	0.001953	-0.000492	0.003775	-0.109033
0.654499999999983	-0.002472	0.008288	0.325399	-0.000293	0.002716	0.002155	-0.006534	-0.116642
0.654999999999983	-0.002536	0.008627	0.381076	-0.000643	0.003016	0.003777	-0.030148	-0.108646
0.655499999999983	-0.003091	0.008268	0.35399	-0.001381	0.00172	0.005041	-0.060525	-0.083914
0.655999999999983	-0.004778	0.006249	0.272252	-0.001168	-0.001096	0.006742	-0.085398	-0.04555
0.656499999999983	-0.007022	0.002808	0.151934	-0.000829	-0.002884	0.005089	-0.092914	-0.007409
0.656999999999983	-0.006851	0.00054	0.021467	-0.002526	-0.00258	-0.004847	-0.076669	0.014697
0.657499999999983	-0.003488	0.001361	-0.072275	-0.004482	-0.002259	-0.018694	-0.041165	0.02059
0.657999999999983	-0.000254	0.003357	-0.100642	-0.004398	-0.003037	-0.023546	-0.009479	0.020972
0.658499999999983	0.000847	0.00297	-0.075127	-0.003334	-0.003921	-0.013511	-0.015568	0.019481
0.658999999999983	0.001249	-0.000185	-0.023995	-0.002085	-0.004173	0.001856	-0.065499	0.011223
0.659499999999983	0.002464	-0.003124	0.032738	-0.000786	-0.004002	0.010445	-0.110121	-0.005841
0.659999999999983	0.004099	-0.003288	0.078864	-0.001047	-0.003924	0.011792	-0.089493	-0.0269
0.660499999999983	0.004027	-0.001525	0.095359	-0.002268	-0.004431	0.011644	-0.004431	-0.048264
0.660999999999983	0.001574	-0.001136	0.075427	-0.001349	-0.005695	0.010628	0.088549	-0.07215
0.661499999999983	-3.7e-05	-0.002894	0.038046	0.000439	-0.007108	0.006572	0.147099	-0.098504
0.661999999999982	0.001606	-0.004907	0.011257	0.000228	-0.008135	0.001575	0.172533	-0.118094
0.662499999999982	0.003849	-0.006714	0.004585	0.000122	-0.008304	-5e-05	0.178776	-0.120225
0.662999999999982	0.003743	-0.007567	0.007248	0.001114	-0.006831	0.002656	0.172814	-0.103361
0.663499999999982	0.002884	-0.006037	0.007859	0.000235	-0.005551	0.006311	0.166388	-0.0739
0.663999999999982	0.002878	-0.00398	0.006556	-0.002033	-0.00772	0.005877	0.170805	-0.041158
0.664499999999982	0.002325	-0.003802	0.008893	-0.002378	-0.011897	-5.2e-05	0.173536	-0.016504
0.664999999999982	0.001554	-0.004115	0.013117	-0.001423	-0.013368	-0.006461	0.150146	-0.00708
0.665499999999982	0.002023	-0.003107	0.008813	-0.001264	-0.011078	-0.008597	0.104075	-0.006713
0.665999999999982	0.002364	-0.002212	-0.011782	-0.001267	-0.008493	-0.007227	0.06672	-0.003557
0.666499999999982	0.001549	-0.002526	-0.047052	-0.001152	-0.008122	-0.004198	0.055799	0.002798
0.666999999999982	0.000572	-0.002054	-0.088767	-0.000801	-0.009495	-0.001272	0.057974	0.005108
0.667499999999982	-0.00032	0.000633	-0.12733	0.000342	-0.011738	-0.00176	0.054372	0.004079
0.667999999999982	-0.001029	0.004323	-0.156404	0.000757	-0.01306	-0.005944	0.043538	0.006554
0.668499999999982	-0.000903	0.006643	-0.17232	0.000349	-0.012014	-0.009962	0.035017	0.014348
0.668999999999982	-0.00013	0.006328	-0.169086	0.001182	-0.010714	-0.010762	0.030306	0.021262
0.669499999999982	0.000809	0.004804	-0.136555	0.002893	-0.010937	-0.008901	0.01801	0.020628
0.669999999999982	0.001855	0.00476	-0.066591	0.003428	-0.011113	-0.008286	-0.010506	0.014268
0.670499999999982	0.00269	0.006677	0.031239	0.002331	-0.009996	-0.012136	-0.049421	0.009285
0.670999999999982	0.002938	0.007911	0.11944	0.000846	-0.008273	-0.017465	-0.085569	0.008252
0.671499999999981	0.002289	0.006793	0.152806	-0.000285	-0.006881	-0.016398	-0.108944	0.007384
0.671999999999981	0.000433	0.004256	0.119473	-0.000837	-0.007067	-0.005998	-0.116421	0.003136
0.672499999999981	-0.001319	0.00151	0.056082	-0.000915	-0.009328	0.007115	-0.111897	-0.003086
0.672999999999981	-0.001582	-0.000402	0.013394	-0.001757	-0.011103	0.015302	-0.103149	-0.006797
0.673499999999981	-0.002397	-0.001834	0.011456	-0.002816	-0.010197	0.016851	-0.095892	-0.004842
0.673999999999981	-0.005061	-0.004355	0.034595	-0.001506	-0.007988	0.013916	-0.092177	0.000285
0.674499999999981	-0.00607	-0.007321	0.055856	0.001405	-0.006367	0.010171	-0.094295	0.002442
0.674999999999981	-0.003469	-0.008423	0.054804	0.002594	-0.006121	0.0083	-0.102135	-0.00059
0.675499999999981	-0.001151	-0.007258	0.027762	0.002832	-0.007007	0.006951	-0.10551	-0.005517
0.675999999999981	-0.001879	-0.005757	-0.006613	0.004028	-0.007175	0.004062	-0.088575	-0.008178
0.676499999999981	-0.002765	-0.005037	-0.021937	0.003986	-0.005456	0.000657	-0.045984	-0.007083
0.676999999999981	-0.001479	-0.004162	-0.010405	0.002089	-0.003592	-0.001849	0.006275	-0.00258
0.677499999999981	0.000237	-0.002466	0.01285	0.000503	-0.003567	-0.002505	0.03597	0.004422
0.677999999999981	0.000334	-0.000471	0.031098	-0.000397	-0.004541	-0.000409	0.013298	0.011848
0.678499999999981	-0.001133	0.000841	0.040488	-0.000829	-0.005506	0.002643	-0.064689	0.017227
0.678999999999981	-0.00236	0.001208	0.042756	-0.00112	-0.007065	0.00337	-0.162839	0.01853
0.679499999999981	-0.002194	0.001377	0.036818	-0.001153	-0.008613	0.000691	-0.231562	0.015422
0.679999999999981	-0.00097	0.001703	0.023907	-0.000236	-0.008479	-0.003037	-0.244458	0.010444
0.68049999999998	0.000946	0.001674	0.009786	-1.8e-05	-0.006607	-0.00422	-0.201176	0.007963
0.68099999999998	0.002187	0.00075	-0.006544	-0.001857	-0.005241	-0.003645	-0.103645	0.012649
0.68149999999998	0.001919	-0.000773	-0.03412	-0.00439	-0.006143	-0.00511	0.032934	0.026228
0.68199999999998	0.00168	-0.002404	-0.07112	-0.005794	-0.007517	-0.006788	0.146342	0.044473
0.68249999999998	0.001374	-0.004081	-0.096809	-0.004307	-0.007147	-0.003318	0.171162	0.057024
0.68299999999998	-7.1e-05	-0.005606	-0.09202	-0.000331	-0.006086	0.003887	0.136533	0.054299
0.68349999999998	-0.000673	-0.006159	-0.061735	0.001921	-0.005676	0.00859	0.140819	0.041919
0.68399999999998	0.000648	-0.004956	-0.03015	-4.4e-05	-0.005179	0.009132	0.209803	0.04038
0.68449999999998	0.00147	-0.003418	-0.016404	-0.002229	-0.0037	0.007884	0.268824	0.058902
0.68499999999998	0.001208	-0.00327	-0.022214	-0.001273	-0.001027	0.006867	0.262848	0.076411
0.68549999999998	0.002292	-0.003135	-0.03949	-0.00048	0.002027	0.006947	0.209994	0.065353
0.68599999999998	0.004854	-0.001942	-0.057568	-0.001438	0.003755	0.006884	0.13017	0.029052
0.68649999999998	0.006154	-0.001181	-0.061824	-0.001143	0.004513	0.00527	0.016916	-0.007002
0.68699999999998	0.005404	-0.001223	-0.041687	0.00013	0.007092	0.002888	-0.098446	-0.030935
0.68749999999998	0.004224	-0.000948	-0.007566	0.000412	0.011719	0.000901	-0.145588	-0.045695
0.68799999999998	0.00385	-0.000743	0.013894	0.001006	0.014192	-0.000658	-0.112414	-0.045074
0.68849999999998	0.004989	-0.00118	0.007351	0.001912	0.012592	-0.002099	-0.070396	-0.017129
0.68899999999998	0.00656	-0.000989	-0.016544	0.000363	0.011178	-0.003144	-0.073995	0.02773
0.689499999999979	0.005609	-0.000196	-0.035093	-0.002242	0.013868	-0.003563	-0.100355	0.055535
0.689999999999979	0.001912	-0.000571	-0.036048	-0.001625	0.019125	-0.002849	-0.12161	0.043887
0.690499999999979	-0.001653	-0.001265	-0.02575	0.002035	0.022654	-0.000732	-0.16876	0.005642
0.690999999999979	-0.002978	-0.000193	-0.01993	0.005329	0.021424	0.000622	-0.269349	-0.029649
0.691499999999979	-0.002031	0.001503	-0.026884	0.005609	0.016263	-8.8e-05	-0.384838	-0.048907
0.691999999999979	-0.001122	0.001233	-0.038095	0.003384	0.011545	-0.000745	-0.459185	-0.059901
0.692499999999979	-0.002614	-0.000514	-0.038558	0.001883	0.010688	0.001038	-0.446981	-0.069973
0.692999999999979	-0.005512	-0.000794	-0.025907	0.001858	0.012825	0.005858	-0.267802	-0.07468
0.693499999999979	-0.007304	0.001004	-0.011877	0.001626	0.014417	0.010474	0.129007	-0.068213
0.693999999999979	-0.007077	0.00259	-0.003721	0.001199	0.013553	0.010021	0.612953	-0.05512
0.694499999999979	-0.005109	0.002388	0.007145	0.001523	0.01211	0.005088	0.923171	-0.044201
0.694999999999979	-0.002189	0.000734	0.032527	0.002239	0.012546	0.000419	0.913229	-0.035123
0.695499999999979	2.8e-05	-0.001096	0.068356	0.002358	0.013853	-0.002232	0.661981	-0.020389
