Time	L_BF	L_GAL	L_TA	L_VL	R_BF	R_GAL	R_TA	R_VL
0	-0.011613	-0.002454	-0.01381	-0.010078	-0.00145	-0.01214	-3.7e-05	0.014569
0.0005	-0.031099	-0.003023	-0.016563	-0.011944	-0.003068	-0.031036	8.1e-05	0.009899
0.001	-0.074807	-0.002747	-0.01472	-0.01028	-0.005809	-0.030625	0.002066	0.009538
0.0015	-0.112702	-0.000941	-0.008835	-0.006235	-0.007302	-0.009313	0.005604	0.014555
0.002	-0.099497	0.001429	-0.002354	-0.00466	-0.005575	0.019679	0.008309	0.023613
0.0025	-0.042704	0.002266	0.003702	-0.007763	-0.002446	0.043016	0.008359	0.037357
0.003	0.005133	0.001697	0.011484	-0.013152	-0.000692	0.058537	0.007177	0.054305
0.0035	0.014214	0.000548	0.023308	-0.016169	-0.001217	0.074183	0.008025	0.06634
0.004	0.003698	-0.001817	0.040963	-0.01176	-0.002871	0.093571	0.011169	0.068167
0.0045	-0.001749	-0.00396	0.065601	0.00034	-0.003513	0.105673	0.013475	0.06416
0.005	-0.009636	-0.003008	0.093433	0.01523	-0.002837	0.094394	0.013392	0.061342
0.0055	-0.037796	0.000816	0.114627	0.029582	-0.002605	0.057187	0.011644	0.060934
0.006	-0.073906	0.004571	0.119471	0.042213	-0.003857	0.010927	0.008065	0.057694
0.0065	-0.08275	0.005966	0.102596	0.051109	-0.005424	-0.018437	0.001451	0.045619
0.007	-0.053204	0.004897	0.064508	0.055257	-0.005499	-0.013011	-0.008096	0.022745
0.0075	-0.014348	0.001661	0.017571	0.056812	-0.004209	0.022574	-0.017342	-0.007723
0.008	0.002302	-0.002664	-0.012855	0.056998	-0.002025	0.063713	-0.022422	-0.038882
0.0085	-0.003619	-0.004412	-0.00864	0.053559	0.001183	0.085952	-0.02277	-0.061424
0.009	-0.012387	-0.001781	0.016098	0.045522	0.004561	0.082261	-0.020569	-0.068559
0.0095	-0.011683	0.002482	0.025041	0.034084	0.007742	0.064305	-0.017851	-0.065641
0.01	-0.005302	0.005165	-9.1e-05	0.021232	0.010613	0.044772	-0.015129	-0.064236
0.0105	-0.002126	0.005082	-0.041052	0.011172	0.011883	0.017932	-0.012482	-0.066267
0.011	-0.003281	0.003589	-0.067913	0.006285	0.011136	-0.027352	-0.009908	-0.06669
0.0115	-0.002052	0.002839	-0.070639	0.003116	0.009544	-0.077822	-0.007082	-0.06306
0.012	0.005738	0.002132	-0.058931	-0.001966	0.008444	-0.107598	-0.005333	-0.053381
0.0125	0.015942	0.000242	-0.042937	-0.008354	0.008665	-0.118986	-0.006678	-0.035934
0.013	0.021745	-0.00093	-0.026803	-0.015849	0.009889	-0.137327	-0.009437	-0.016769
0.0135	0.020609	-2.5e-05	-0.011967	-0.025051	0.010523	-0.165202	-0.008616	-0.006245
0.014	0.015506	0.001231	0.002236	-0.032301	0.009547	-0.176583	-0.001493	-0.005574
0.0145	0.012494	0.001505	0.015039	-0.033203	0.008057	-0.15829	0.0084	-0.006663
0.015	0.015244	0.001283	0.020224	-0.028179	0.006966	-0.126807	0.01487	-0.003515
0.0155	0.021731	0.001096	0.011303	-0.020448	0.004991	-0.099055	0.016047	0.00245
0.016	0.027352	0.000941	-0.007629	-0.012885	0.001701	-0.069711	0.013821	0.005671
0.0165	0.029375	0.00055	-0.022363	-0.007028	-0.001187	-0.027319	0.00902	0.003215
0.017	0.027675	0.000112	-0.025273	-0.002434	-0.003263	0.022348	0.001573	-0.001198
0.0175	0.023439	0.00043	-0.02287	0.001674	-0.005386	0.060255	-0.005755	-0.001289
0.018	0.019312	0.002092	-0.022724	0.003289	-0.007092	0.069891	-0.008231	0.003583
0.0185	0.017859	0.004837	-0.024492	-0.000939	-0.007902	0.043831	-0.006777	0.007526
0.019	0.018711	0.006657	-0.024946	-0.012122	-0.008782	-0.009201	-0.008434	0.006365
0.0195	0.019277	0.005809	-0.022241	-0.027224	-0.010604	-0.05925	-0.014992	0.00327
0.02	0.017725	0.003554	-0.016185	-0.037961	-0.012461	-0.073443	-0.018545	0.003908
0.0205	0.015469	0.00211	-0.008836	-0.036145	-0.012648	-0.046532	-0.012051	0.008184
0.021	0.014771	0.002114	-0.00344	-0.022202	-0.01123	-0.005665	0.001224	0.010744
0.0215	0.014127	0.002769	-0.001298	-0.004345	-0.009211	0.018311	0.011343	0.009148
0.022	0.011529	0.003371	-0.001779	0.009015	-0.006463	0.019425	0.011709	0.006657
0.0225	0.008392	0.003453	-0.005583	0.01457	-0.003562	0.013581	0.004708	0.006676
0.023	0.006292	0.001579	-0.012836	0.013792	-0.002018	0.015382	-0.001833	0.008806
0.0235	0.006405	-0.002403	-0.019616	0.009262	-0.001804	0.025183	-0.003673	0.010445
0.024	0.010205	-0.00535	-0.023034	0.004327	-0.002564	0.0305	-0.003353	0.009752
0.0245	0.015183	-0.005059	-0.026213	0.002687	-0.004694	0.017066	-0.004556	0.00719
0.025	0.015802	-0.003813	-0.032938	0.003797	-0.007442	-0.014292	-0.006946	0.004818
0.0255	0.011054	-0.004257	-0.04107	0.003801	-0.009035	-0.044453	-0.007383	0.00422
0.026	0.005935	-0.005208	-0.045616	0.00221	-0.00864	-0.056126	-0.004969	0.005841
0.0265	0.005637	-0.004314	-0.045343	0.001416	-0.006937	-0.052686	-0.002691	0.008543
0.027	0.010452	-0.001576	-0.040917	0.001196	-0.005432	-0.04981	-0.002754	0.00943
0.0275	0.016057	0.000437	-0.029461	0.000437	-0.005415	-0.055833	-0.00411	0.007737
0.028	0.018188	0.00024	-0.007362	-7.7e-05	-0.006006	-0.06524	-0.005561	0.006278
0.0285	0.016725	0.000568	0.023213	-0.001071	-0.00454	-0.063749	-0.006643	0.006089
0.029	0.015322	0.002993	0.054402	-0.0037	-0.001373	-0.041839	-0.006007	0.005081
0.0295	0.016158	0.003766	0.078169	-0.005304	-8.2e-05	-0.005883	-0.00309	0.002768
0.03	0.017125	0.000191	0.089239	-0.00363	-0.00098	0.028068	-0.000356	0.000753
0.0305	0.016338	-0.004477	0.083646	-0.001964	-0.000559	0.049564	-9e-06	-0.000269
0.031	0.015686	-0.005543	0.060545	-0.003417	0.001862	0.060388	-0.000191	-1.1e-05
0.0315	0.01836	-0.002114	0.027786	-0.005737	0.003509	0.068592	0.000757	0.0011
0.032	0.024258	0.003241	-0.000598	-0.007066	0.004329	0.077657	-0.000255	0.000372
0.0325	0.028521	0.006713	-0.016824	-0.007661	0.006747	0.080597	-0.005207	-0.002443
0.033	0.026043	0.00662	-0.025412	-0.007218	0.010078	0.070085	-0.009884	-0.003446
0.0335	0.017055	0.005085	-0.033359	-0.007344	0.011365	0.052053	-0.010305	-0.001881
0.034	0.007157	0.003896	-0.039175	-0.009603	0.010332	0.035987	-0.008037	-0.001685
0.0345	0.001387	0.002523	-0.038452	-0.011848	0.009331	0.018275	-0.006137	-0.004819
0.035	-0.000628	0.000639	-0.036192	-0.011221	0.008671	-0.012576	-0.004539	-0.008575
0.0355	-0.001983	-0.001592	-0.041902	-0.008595	0.006331	-0.05771	-0.00065	-0.010382
0.036	-0.004538	-0.004091	-0.052545	-0.00723	0.002971	-0.098667	0.005918	-0.010106
0.0365	-0.007559	-0.005903	-0.053914	-0.007631	0.001721	-0.109757	0.010967	-0.00788
0.037	-0.008158	-0.00569	-0.042147	-0.007963	0.003158	-0.082575	0.009666	-0.00497
0.0375	-0.00771	-0.004543	-0.03135	-0.006609	0.004772	-0.034765	0.001092	-0.002963
0.038	-0.015338	-0.004525	-0.036194	-0.003149	0.004456	0.008035	-0.009929	-0.002938
0.0385	-0.038999	-0.004412	-0.055902	0.000135	0.00262	0.034282	-0.015957	-0.006203
0.039	-0.072818	-0.003157	-0.077058	0.001113	0.000852	0.04577	-0.015422	-0.010167
0.0395	-0.094834	-0.003016	-0.086899	0.000192	-3.1e-05	0.042796	-0.014501	-0.010134
0.04	-0.085208	-0.00378	-0.080379	-0.002532	0.000347	0.021515	-0.017819	-0.007196
0.0405	-0.049684	-0.001437	-0.055764	-0.006315	0.001711	-0.010928	-0.022143	-0.006237
0.041	-0.016002	0.003718	-0.010005	-0.00733	0.002769	-0.025199	-0.020967	-0.008251
0.0415	-0.004059	0.006064	0.054625	-0.004314	0.003402	0.006585	-0.012529	-0.010398
0.042	-0.008806	0.003681	0.118534	-0.001987	0.004056	0.067355	-0.002069	-0.011181
0.0425	-0.014265	-7.7e-05	0.15057	-0.002563	0.003419	0.094413	0.003309	-0.010778
0.043	-0.010547	-0.001966	0.133075	-0.002262	0.001999	0.041751	0.000714	-0.009205
0.0435	0.004801	-0.001317	0.076744	0.000222	0.002837	-0.061505	-0.006276	-0.007708
0.044	0.025657	0.00011	0.011178	0.00225	0.005536	-0.135786	-0.010959	-0.008103
0.0445	0.035209	0.000912	-0.036559	0.002991	0.006561	-0.135921	-0.010554	-0.009653
0.045	0.020278	0.001547	-0.056757	0.003171	0.00496	-0.087359	-0.007274	-0.010298
0.0455	-0.008968	0.002506	-0.055551	0.002809	0.003782	-0.036584	-0.003139	-0.010031
0.046	-0.026409	0.003095	-0.043258	0.00202	0.00588	9.4e-05	0.001472	-0.009858
0.0465	-0.020975	0.003163	-0.022805	0.001531	0.009557	0.026307	0.00574	-0.0096
0.047	-0.006961	0.004038	0.013333	0.001975	0.010436	0.039929	0.009153	-0.009312
0.0475	0.001172	0.005207	0.072298	0.004334	0.006822	0.039978	0.012237	-0.009566
0.048	0.006948	0.004758	0.144383	0.00783	0.00145	0.037451	0.013881	-0.010122
0.0485	0.01719	0.003224	0.199758	0.007513	-0.002049	0.041835	0.01226	-0.011123
0.049	0.026885	0.001753	0.209828	0.002195	-0.002696	0.046691	0.00875	-0.012494
0.0495	0.028871	0.000239	0.174452	-0.001548	-0.001842	0.039672	0.00672	-0.012631
0.05	0.026008	-0.001075	0.119698	0.000555	-0.001852	0.021752	0.007823	-0.011252
0.0505	0.02528	-0.001837	0.068883	0.006182	-0.003734	0.007772	0.010716	-0.010424
0.051	0.026916	-0.002513	0.025976	0.011986	-0.005413	0.009485	0.012603	-0.011241
0.0515	0.025643	-0.003735	-0.013315	0.017493	-0.005331	0.023285	0.012137	-0.012127
0.052	0.019735	-0.005049	-0.048422	0.023021	-0.005204	0.036294	0.010254	-0.011718
0.0525	0.012884	-0.004872	-0.077785	0.025661	-0.006598	0.04172	0.008891	-0.011112
0.053	0.008787	-0.002062	-0.103155	0.022855	-0.007749	0.042539	0.009993	-0.011212
0.0535	0.008522	0.002396	-0.123323	0.016832	-0.006532	0.041323	0.014073	-0.011022
0.054	0.010501	0.005536	-0.132889	0.010063	-0.004494	0.036987	0.01808	-0.009865
0.0545	0.009386	0.005802	-0.131255	0.003053	-0.004178	0.030627	0.017154	-0.008323
0.055	-0.003595	0.005227	-0.125477	-0.00192	-0.005161	0.022255	0.011312	-0.006814
0.0555	-0.032762	0.006115	-0.119625	-0.003951	-0.005181	0.005949	0.006106	-0.005719
0.056	-0.065421	0.007316	-0.107353	-0.007705	-0.00294	-0.020419	0.004939	-0.005742
0.0565	-0.077119	0.006321	-0.080505	-0.016024	-0.000104	-0.047492	0.005196	-0.005695
0.057	-0.058008	0.003704	-0.039169	-0.025195	0.000707	-0.06612	0.00237	-0.003991
0.0575	-0.025256	0.0018	0.009323	-0.032066	0.000198	-0.079893	-0.003474	-0.001771
0.058	-0.003553	0.000235	0.052534	-0.038031	0.000853	-0.096052	-0.007694	0.000225
0.0585	0.000647	-0.002356	0.074824	-0.044826	0.002606	-0.108143	-0.007434	0.00267
0.059	-0.000915	-0.00448	0.068877	-0.050102	0.004125	-0.098816	-0.004461	0.004519
0.0595	0.000334	-0.005056	0.045559	-0.04862	0.005707	-0.060895	-0.00206	0.004475
0.06	0.001235	-0.005992	0.023803	-0.038611	0.007091	-0.007369	-0.000943	0.003587
0.0605	-0.001554	-0.007838	0.01168	-0.024321	0.006823	0.041538	0.000184	0.00293
0.061	-0.005351	-0.008721	0.003198	-0.01077	0.005323	0.07379	0.001103	0.002174
0.0615	-0.006734	-0.007633	-0.010256	-0.000687	0.004319	0.088244	0.000779	0.002218
0.062	-0.00413	-0.004971	-0.028598	0.002398	0.004692	0.091146	1.5e-05	0.003406
0.0625	0.001563	-0.002152	-0.039185	-0.00275	0.005217	0.089307	0.000574	0.004057
0.063	0.006008	-0.000563	-0.032845	-0.010791	0.004033	0.082356	0.00345	0.004216
0.0635	0.00648	0.000521	-0.028876	-0.017772	0.002575	0.067003	0.007521	0.004173
0.064	0.005647	0.002285	-0.055085	-0.024054	0.002882	0.047832	0.008824	0.003695
0.0645	0.00716	0.00376	-0.087558	-0.026869	0.003148	0.035119	0.005006	0.005101
0.065	0.011561	0.003965	-0.056967	-0.021096	0.00147	0.03256	-0.001295	0.009047
0.0655	0.016453	0.003938	0.05139	-0.005483	-0.000252	0.031361	-0.006668	0.011569
0.066	0.019097	0.004098	0.154805	0.017309	0.000334	0.017384	-0.009726	0.010553
0.0665	0.01928	0.003147	0.1746	0.042801	0.001938	-0.012704	-0.010501	0.009382
0.067	0.018374	0.000562	0.129942	0.063653	0.00147	-0.042592	-0.010321	0.010519
0.0675	0.017908	-0.002811	0.084001	0.074507	-0.001243	-0.051929	-0.009992	0.011308
0.068	0.020271	-0.004621	0.048963	0.077495	-0.003098	-0.038675	-0.008803	0.009705
0.0685	0.02621	-0.002373	-8.7e-05	0.075187	-0.002414	-0.01716	-0.006196	0.007642
0.069	0.032543	0.001935	-0.052865	0.066866	-0.00171	0.000449	-0.003502	0.007234
0.0695	0.035465	0.003639	-0.060029	0.053338	-0.004461	0.013256	-0.002766	0.008201
0.07	0.034067	0.0018	0.003614	0.037874	-0.010001	0.023411	-0.003923	0.00937
0.0705	0.029945	-0.001107	0.102064	0.025581	-0.012919	0.026091	-0.005712	0.010564
0.071	0.024556	-0.00258	0.167971	0.020784	-0.009613	0.016433	-0.007705	0.012172
0.0715	0.018617	-0.002379	0.156599	0.021963	-0.004472	0.000688	-0.009264	0.013353
0.0720000000000001	0.013619	-0.002705	0.07328	0.022574	-0.003542	-0.009373	-0.008722	0.011521
0.0725000000000001	0.010178	-0.004371	-0.036353	0.017989	-0.004842	-0.009239	-0.005275	0.006575
0.0730000000000001	0.007397	-0.005431	-0.118058	0.008768	-0.003453	-0.004772	-0.001248	0.003133
0.0735000000000001	0.005196	-0.004623	-0.142331	-0.001875	-0.001259	-0.006076	-0.000511	0.003833
0.0740000000000001	0.001665	-0.002698	-0.118309	-0.010563	-0.002882	-0.019108	-0.004005	0.005485
0.0745000000000001	-0.007777	-0.000649	-0.077503	-0.016696	-0.00674	-0.04239	-0.008715	0.004451
0.0750000000000001	-0.021671	0.000756	-0.044998	-0.021255	-0.008141	-0.069236	-0.011252	0.002321
0.0755000000000001	-0.027443	0.000945	-0.026503	-0.022291	-0.006656	-0.086982	-0.010454	0.003739
0.0760000000000001	-0.013659	0.000896	-0.016552	-0.018761	-0.004365	-0.080895	-0.006802	0.007756
0.0765000000000001	0.01208	0.002433	-0.011328	-0.013678	-0.002366	-0.05122	-0.002043	0.008397
0.0770000000000001	0.028924	0.004879	-0.013272	-0.009526	-0.001699	-0.018672	0.001689	0.005461
0.0775000000000001	0.028026	0.005764	-0.026087	-0.007261	-0.002463	-0.004225	0.003784	0.00388
0.0780000000000001	0.019316	0.004745	-0.045577	-0.008285	-0.002923	-0.009234	0.004314	0.004217
0.0785000000000001	0.015044	0.002542	-0.059669	-0.012541	-0.002413	-0.018299	0.00336	0.003796
0.0790000000000001	0.020082	-0.000538	-0.06168	-0.016806	-0.00173	-0.019213	0.002996	0.002395
0.0795000000000001	0.036475	-0.002539	-0.057247	-0.01876	-0.000527	-0.013801	0.005618	0.000813
0.0800000000000001	0.063095	-0.002216	-0.054652	-0.018777	0.001933	-0.008559	0.00989	-0.000759
0.0805000000000001	0.087641	-0.001372	-0.05628	-0.016873	0.004656	-0.005461	0.01238	-0.001693
0.0810000000000001	0.088661	-0.000917	-0.061161	-0.014715	0.005814	-0.002827	0.011376	-0.002711
0.0815000000000001	0.053822	1.7e-05	-0.068217	-0.014452	0.005319	-0.000967	0.007855	-0.005319
0.0820000000000001	-0.002336	0.000966	-0.07493	-0.013386	0.004987	-0.005115	0.005353	-0.007422
0.0825000000000001	-0.045974	0.000538	-0.077129	-0.009513	0.005525	-0.017669	0.006061	-0.006395
0.0830000000000001	-0.056016	-0.001181	-0.074379	-0.006712	0.006142	-0.032675	0.007736	-0.005092
0.0835000000000001	-0.043728	-0.002614	-0.073525	-0.007709	0.006392	-0.042312	0.008113	-0.007256
0.0840000000000001	-0.034552	-0.002628	-0.079895	-0.009845	0.005901	-0.042889	0.00743	-0.011039
0.0845000000000001	-0.036338	-0.001071	-0.086297	-0.010131	0.005225	-0.035296	0.005629	-0.012448
0.0850000000000001	-0.036332	0.001403	-0.074386	-0.008294	0.005779	-0.022125	0.002349	-0.0107
0.0855000000000001	-0.028279	0.003261	-0.025684	-0.005289	0.006482	-0.003906	-0.000869	-0.008597
0.0860000000000001	-0.027573	0.003699	0.059069	-0.001933	0.005206	0.017266	-0.001777	-0.008594
0.0865000000000001	-0.05107	0.003675	0.14575	0.000733	0.002874	0.032335	-0.000647	-0.008979
0.0870000000000001	-0.088935	0.004515	0.18947	0.000878	0.001896	0.032607	0.000249	-0.007766
0.0875000000000001	-0.109067	0.00561	0.17987	-0.000835	0.002613	0.020382	-0.000213	-0.0061
0.0880000000000001	-0.091131	0.005143	0.147418	-0.001434	0.002939	0.008134	-0.001536	-0.004676
0.0885000000000001	-0.045532	0.004026	0.11866	-0.002404	0.001306	0.008743	-0.003284	-0.002949
0.0890000000000001	0.001701	0.004921	0.088417	-0.007683	-0.001438	0.024118	-0.005786	-0.000983
0.0895000000000001	0.030012	0.006941	0.04756	-0.015745	-0.003593	0.043488	-0.008688	0.000639
0.0900000000000001	0.030866	0.006115	0.01015	-0.021426	-0.003973	0.054654	-0.009797	0.00159
0.0905000000000001	0.010624	0.001893	-0.006113	-0.022098	-0.002931	0.053559	-0.00774	0.002272
0.0910000000000001	-0.009606	-0.001443	-0.004966	-0.018565	-0.002068	0.042946	-0.004532	0.002892
0.0915000000000001	-0.011853	-0.001416	-0.000378	-0.013241	-0.001816	0.028028	-0.002564	0.003054
0.0920000000000001	-0.00101	-0.000249	0.003648	-0.008869	-0.001577	0.015161	-0.001075	0.002248
0.0925000000000001	0.003837	-0.000688	0.010112	-0.006308	-0.001107	0.007576	0.001184	0.001025
0.0930000000000001	-0.004522	-0.002665	0.018034	-0.003722	0.000179	0.001641	0.002509	0.001173
0.0935000000000001	-0.013573	-0.004462	0.024016	7.7e-05	0.002637	-0.006624	0.001477	0.002084
0.0940000000000001	-0.008267	-0.005466	0.029355	0.004903	0.004829	-0.014867	0.000502	0.001758
0.0945000000000001	0.010436	-0.005892	0.036783	0.010832	0.004996	-0.018924	0.002493	0.001732
0.0950000000000001	0.023439	-0.00565	0.042143	0.015922	0.003022	-0.018485	0.006467	0.003761
0.0955000000000001	0.010745	-0.00433	0.03914	0.017496	0.000534	-0.015103	0.008691	0.004802
0.0960000000000001	-0.023123	-0.001067	0.030565	0.017659	-0.000763	-0.010358	0.006971	0.001886
0.0965000000000001	-0.048671	0.003193	0.025291	0.019236	-0.000987	-0.006617	0.002518	-0.001721
0.0970000000000001	-0.045123	0.005003	0.025296	0.01988	-0.000783	-0.005433	-0.001845	-0.000916
0.0975000000000001	-0.023218	0.002785	0.0248	0.018202	-0.001381	-0.006262	-0.004515	0.004221
0.0980000000000001	-0.006159	-0.000808	0.021494	0.015931	-0.004269	-0.006799	-0.006021	0.008687
0.0985000000000001	-0.001118	-0.002741	0.018489	0.013861	-0.007161	-0.004647	-0.006994	0.008722
0.0990000000000001	-0.000809	-0.00386	0.016125	0.014021	-0.006629	-0.00014	-0.006223	0.006502
0.0995000000000001	-0.000466	-0.00551	0.010852	0.017116	-0.003619	0.004356	-0.002731	0.006298
0.1	-0.000156	-0.005462	0.002522	0.018722	-0.001437	0.007869	0.000824	0.008482
0.1005	0.000441	-0.002376	-0.003707	0.015248	-0.001472	0.012018	0.000716	0.009764
0.101	0.0016	0.001028	-0.004255	0.008121	-0.002033	0.018238	-0.002019	0.008261
0.1015	0.00259	0.002326	0.000128	0.000669	-0.001066	0.024763	-0.002395	0.005593
0.102	0.001833	0.001971	0.00726	-0.005642	0.000291	0.028134	0.001478	0.003456
0.1025	-0.001569	0.000432	0.011284	-0.010166	-0.000528	0.025917	0.005406	0.002782
0.103	-0.004565	-0.002339	0.00176	-0.011859	-0.002439	0.017934	0.004614	0.004053
0.1035	-0.002767	-0.004611	-0.024694	-0.011193	-0.002236	0.007338	-6.2e-05	0.005605
0.104	0.004094	-0.004987	-0.055217	-0.008846	-0.000591	-0.001157	-0.004048	0.005393
0.1045	0.012852	-0.004201	-0.074335	-0.005686	-0.000183	-0.005449	-0.005994	0.003274
0.105	0.019769	-0.003077	-0.084368	-0.00423	-0.001333	-0.007993	-0.008412	0.000758
0.1055	0.02246	-0.002497	-0.10287	-0.004541	-0.003282	-0.012638	-0.01137	-0.000316
0.106	0.021407	-0.003218	-0.141811	-0.004492	-0.004778	-0.019118	-0.011473	-0.000276
0.1065	0.018865	-0.004188	-0.195308	-0.006231	-0.004473	-0.025139	-0.0072	-0.001116
0.107	0.016501	-0.003633	-0.246979	-0.013208	-0.002844	-0.032354	-0.000818	-0.002994
0.1075	0.014212	-0.001172	-0.283289	-0.021385	-0.001117	-0.042178	0.004068	-0.004459
0.108	0.011301	0.002262	-0.291811	-0.022257	0.000471	-0.048341	0.004861	-0.004908
0.1085	0.008676	0.005649	-0.245881	-0.013423	0.001259	-0.041615	0.00254	-0.003991
0.109	0.007677	0.008533	-0.110609	-0.000585	0.000498	-0.023339	0.001907	-0.001559
0.1095	0.007442	0.01056	0.111792	0.010166	-0.000175	-0.006719	0.004972	0.000232
0.11	0.006204	0.011369	0.345641	0.017213	0.000869	0.001673	0.007213	-0.001224
0.1105	0.00468	0.011759	0.475237	0.019768	0.003191	0.012127	0.005194	-0.004972
0.111	0.005891	0.012033	0.432977	0.017473	0.005602	0.03279	0.001231	-0.007104
0.1115	0.010809	0.009502	0.26151	0.014244	0.005958	0.050795	-0.002235	-0.005403
0.112	0.016036	0.002359	0.086553	0.014267	0.003332	0.047033	-0.004346	-0.002001
0.1125	0.017254	-0.006252	0.015986	0.016121	0.000164	0.021703	-0.002829	0.000203
0.113	0.013999	-0.011046	0.058081	0.01579	-0.00078	-0.00605	0.003163	0.000663
0.1135	0.009559	-0.00995	0.136184	0.013048	0.000536	-0.01563	0.01007	0.000132
0.114	0.006204	-0.006525	0.170926	0.011448	0.001702	0.001438	0.013637	0.000284
0.1145	0.00381	-0.005115	0.140809	0.01235	0.000168	0.034567	0.013134	0.00117
0.115	0.002512	-0.004251	0.077734	0.012852	-0.003491	0.057899	0.00991	0.000455
0.1155	0.00249	-0.000232	0.020459	0.009267	-0.004875	0.048511	0.004715	-0.001738
0.116	0.003087	0.004508	-0.024293	-0.000314	-0.002103	0.00787	-0.000284	-0.002933
0.1165	0.002855	0.003956	-0.075051	-0.014785	0.000514	-0.035499	-0.001698	-0.002248
0.117	0.000366	-0.00142	-0.136807	-0.029975	0.000385	-0.05045	-0.000151	-0.000957
0.1175	-0.003237	-0.005774	-0.182522	-0.040488	0.000817	-0.029493	0.001249	-0.000405
0.118	-0.005598	-0.007566	-0.180447	-0.043319	0.003604	0.010802	0.003243	0.00066
0.1185	-0.00639	-0.008969	-0.136311	-0.042029	0.005648	0.048579	0.007357	0.003207
0.119	-0.006515	-0.009864	-0.092134	-0.042528	0.004739	0.069941	0.01084	0.003212
0.1195	-0.0062	-0.009451	-0.073925	-0.042736	0.00257	0.069921	0.0108	-0.002231
0.12	-0.004842	-0.008602	-0.056302	-0.03368	0.001003	0.052473	0.007484	-0.007412
0.1205	-0.002012	-0.00821	0.006334	-0.012501	-5.6e-05	0.03066	0.002664	-0.006063
0.121	0.001567	-0.008232	0.115124	0.012569	-0.000434	0.016547	-0.001586	-0.000812
0.1215	0.003728	-0.007904	0.202995	0.032472	-0.000292	0.010611	-0.004741	0.002063
0.122	0.002828	-0.006621	0.191869	0.044594	-0.001526	0.009233	-0.00868	-0.000503
0.1225	0.000104	-0.004436	0.079057	0.050023	-0.0043	0.012642	-0.014239	-0.0063
0.123	-0.001681	-0.000639	-0.052359	0.051637	-0.005483	0.017756	-0.017803	-0.009835
0.1235	-0.000671	0.005951	-0.121121	0.051385	-0.002625	0.016061	-0.01515	-0.009755
0.124	0.002648	0.014229	-0.12253	0.047257	0.002808	0.002809	-0.008327	-0.008655
0.1245	0.005269	0.020469	-0.101286	0.037719	0.006768	-0.016209	-0.003691	-0.007131
0.125	0.004668	0.019725	-0.081365	0.026962	0.00684	-0.030899	-0.003631	-0.004785
0.1255	0.001615	0.010987	-0.049891	0.019871	0.004069	-0.042196	-0.005042	-0.003037
0.126	-0.001025	0.001957	0.004198	0.015918	0.000873	-0.061743	-0.005137	-0.00332
0.1265	-0.001208	3.4e-05	0.062713	0.013022	-0.000583	-0.09186	-0.005082	-0.003756
0.127	0.001259	0.002355	0.099397	0.008951	0.0002	-0.115795	-0.007255	-0.002239
0.1275	0.004697	0.00202	0.111621	0.001371	0.000971	-0.115155	-0.010443	-0.000214
0.128	0.00621	-0.000984	0.107667	-0.007275	-1.5e-05	-0.090811	-0.010959	0.000702
0.1285	0.005073	-0.000764	0.07383	-0.013532	-0.001264	-0.05627	-0.008062	0.00012
0.129	0.003642	0.003762	-0.007073	-0.01709	-0.000665	-0.020211	-0.003512	-0.001682
0.1295	0.003094	0.00718	-0.101808	-0.016837	0.001625	0.012259	0.002973	-0.002507
0.13	0.002381	0.007105	-0.140294	-0.012736	0.003145	0.03487	0.01155	-0.000885
0.1305	0.000952	0.006385	-0.103064	-0.009392	0.002193	0.04531	0.018388	0.00097
0.131	-0.001102	0.006373	-0.052151	-0.009524	0.001218	0.046147	0.020972	0.000662
0.1315	-0.003173	0.005042	-0.051377	-0.009597	0.003305	0.041775	0.021683	7e-06
0.132	-0.003599	0.001503	-0.090864	-0.007833	0.006496	0.036293	0.020902	0.00164
0.1325	-0.002207	-0.001869	-0.115039	-0.00758	0.006614	0.029251	0.014859	0.004257
0.133	-0.00146	-0.002445	-0.096711	-0.010185	0.003504	0.018999	0.003737	0.005578
0.1335	-0.003073	-0.0004	-0.05306	-0.012885	0.000544	0.010473	-0.005576	0.005468
0.134	-0.005861	0.002003	-0.004872	-0.013732	-0.000493	0.009148	-0.00808	0.004568
0.1345	-0.007639	0.003112	0.048004	-0.018093	-0.000562	0.011961	-0.006804	0.003645
0.135	-0.007696	0.003199	0.102529	-0.039579	-0.000762	0.012917	-0.006731	0.003128
0.1355	-0.006861	0.002967	0.12008	-0.085042	-0.001199	0.01183	-0.007237	0.002404
0.136	-0.006332	0.002148	0.05768	-0.137132	-0.00113	0.011837	-0.00535	0.001369
0.1365	-0.006352	0.001291	-0.046248	-0.166969	-0.000321	0.012761	-0.001963	0.001413
0.137	-0.006385	0.001774	-0.074647	-0.167425	-0.00023	0.011908	-0.000134	0.003052
0.1375	-0.006928	0.001925	0.0162	-0.154161	-0.002157	0.008825	-0.000438	0.004424
0.138	-0.008704	-0.001062	0.104075	-0.13409	-0.004459	0.004949	-0.000782	0.003441
0.1385	-0.010097	-0.004782	0.051471	-0.096653	-0.00464	0.001264	-0.000204	0.000297
0.139	-0.008736	-0.005086	-0.098367	-0.035652	-0.003476	-0.00081	0.0002	-0.002435
0.1395	-0.005396	-0.002514	-0.182244	0.03737	-0.003187	-0.000492	2.6e-05	-0.002263
0.14	-0.00292	0.000624	-0.141072	0.103237	-0.004088	0.000297	-0.000398	0.000618
0.1405	-0.002586	0.003094	-0.071817	0.15006	-0.00481	-3.5e-05	-0.000783	0.003009
0.141	-0.003587	0.003851	-0.063344	0.17431	-0.003944	-0.000633	-0.000574	0.001414
0.1415	-0.004291	0.003251	-0.085549	0.175857	-0.001793	-0.001177	0.000519	-0.003321
0.142	-0.004505	0.002817	-0.071803	0.158312	-0.000129	-0.003013	0.00258	-0.006595
0.1425	-0.005653	0.002613	-0.031966	0.128849	-6.4e-05	-0.006379	0.005343	-0.006699
0.143	-0.007506	0.002269	-0.016239	0.096359	-0.000928	-0.008981	0.007515	-0.006246
0.1435	-0.008767	0.003099	-0.000255	0.070514	-0.001016	-0.0086	0.007583	-0.006745
0.144	-0.009774	0.005034	0.097673	0.056629	0.000522	-0.006177	0.005198	-0.006586
0.1445	-0.010462	0.005349	0.260019	0.049791	0.002756	-0.004055	0.000637	-0.005303
0.145	-0.009771	0.002732	0.334565	0.03852	0.004212	-0.003499	-0.005903	-0.004439
0.1455	-0.008783	-0.001201	0.225369	0.015162	0.004459	-0.004872	-0.012268	-0.004336
0.146	-0.009091	-0.003558	0.033044	-0.016091	0.004736	-0.006522	-0.014937	-0.004622
0.1465	-0.009955	-0.00404	-0.077435	-0.040439	0.005558	-0.006167	-0.013792	-0.004489
0.147	-0.010703	-0.006064	-0.07623	-0.046609	0.00544	-0.004424	-0.011171	-0.003226
0.1475	-0.011039	-0.01019	-0.049561	-0.037926	0.004371	-0.003212	-0.008343	-0.002545
0.148	-0.009492	-0.011984	-0.044983	-0.023606	0.003442	-0.002895	-0.00646	-0.003459
0.1485	-0.006083	-0.008841	-0.034407	-0.008003	0.001736	-0.003021	-0.005833	-0.003145
0.149	-0.002572	-0.003596	0.000719	0.006383	-0.001519	-0.003432	-0.005526	4.5e-05
0.1495	0.001104	-0.0001	0.033823	0.016332	-0.004417	-0.003368	-0.00543	0.002475
0.15	0.006259	0.001436	0.04274	0.022337	-0.004659	-0.002479	-0.005322	0.001266
0.1505	0.011955	0.00305	0.038945	0.027436	-0.002494	-0.002148	-0.003906	-0.000923
0.151	0.01566	0.005025	0.038054	0.031216	-0.000236	-0.001839	-0.000724	-0.001423
0.1515	0.017439	0.00535	0.039333	0.032942	-0.000367	0.000301	0.003073	-0.00077
0.152	0.019944	0.003332	0.041218	0.033492	-0.003141	0.002738	0.006169	1.8e-05
0.1525	0.02418	0.000211	0.045417	0.029788	-0.005715	0.002618	0.007521	0.000747
0.153	0.027729	-0.003807	0.043428	0.018806	-0.00603	-0.000972	0.006105	0.001972
0.1535	0.027491	-0.008434	0.027366	0.004105	-0.005252	-0.006484	0.002131	0.003366
0.154	0.024226	-0.011651	0.012142	-0.007786	-0.004177	-0.010409	-0.001757	0.003795
0.1545	0.021694	-0.012195	0.021209	-0.013412	-0.001966	-0.010064	-0.001902	0.004194
0.155	0.020965	-0.011106	0.054823	-0.014179	-1.9e-05	-0.006341	0.002258	0.005949
0.1555	0.020332	-0.009754	0.092	-0.014184	-0.000639	-0.002591	0.006809	0.007174
0.156	0.019199	-0.009195	0.114727	-0.016225	-0.002293	-0.000358	0.008001	0.005423
0.1565	0.017292	-0.011906	0.110494	-0.018695	-0.002412	0.000485	0.006142	0.002415
0.157	0.013358	-0.018836	0.06313	-0.018945	-0.001472	-0.000381	0.003431	0.001465
0.1575	0.007615	-0.026663	-0.026547	-0.017746	-0.000564	-0.002022	0.001086	0.002885
0.158	0.0022	-0.032173	-0.113986	-0.016702	0.000705	-0.002525	-0.000687	0.004192
0.1585	-0.000636	-0.034442	-0.142561	-0.016446	0.002059	-0.001207	-0.002389	0.003081
0.159	-0.000238	-0.033219	-0.109447	-0.016926	0.00195	0.001133	-0.003708	0.000703
0.1595	0.000789	-0.027847	-0.067684	-0.016106	0.00045	0.002207	-0.003208	0.000442
0.16	-0.000189	-0.015132	-0.056961	-0.012475	-0.000762	0.000165	-0.001199	0.00276
0.1605	-0.001296	0.007732	-0.065305	-0.009702	-0.000776	-0.002444	0.000664	0.003974
0.161	0.00054	0.033784	-0.064976	-0.01327	0.00024	-0.001824	0.001968	0.001646
0.1615	0.003733	0.046699	-0.051614	-0.02179	0.000586	-6.5e-05	0.002871	-0.001172
0.162	0.003948	0.037948	-0.034949	-0.028073	-0.001956	-0.000821	0.003568	-0.000651
0.1625	0.000648	0.018417	-0.018027	-0.027616	-0.006277	-0.002034	0.005082	0.002386
0.163	-0.002431	0.006052	-0.000515	-0.021876	-0.008463	-0.000331	0.008058	0.00479
0.1635	-0.002958	0.007932	0.013379	-0.01556	-0.006986	0.003212	0.01081	0.005152
0.164	-0.002674	0.018072	0.01951	-0.010992	-0.003625	0.005375	0.01066	0.004291
0.1645	-0.00419	0.025632	0.019849	-0.00851	-0.000516	0.005751	0.007596	0.00281
0.165	-0.006871	0.022816	0.019278	-0.009507	0.000808	0.006402	0.004718	-8.7e-05
0.1655	-0.007858	0.009592	0.018484	-0.011801	0.00024	0.006715	0.004625	-0.003929
0.166	-0.006678	-0.004968	0.014282	-0.01264	-0.000474	0.004871	0.006579	-0.005712
0.1665	-0.00553	-0.010246	0.003513	-0.016334	-0.000114	0.002943	0.007801	-0.00314
0.167	-0.006567	-0.006883	-0.015999	-0.029667	0.000755	0.002834	0.006748	0.002113
0.1675	-0.009932	-0.003763	-0.040853	-0.055578	0.001544	0.002404	0.004989	0.00573
0.168	-0.012474	-0.003018	-0.058718	-0.088442	0.002543	0.000713	0.005745	0.004999
0.1685	-0.011353	0.000793	-0.059198	-0.112324	0.003349	0.000434	0.009508	0.001172
0.169	-0.008728	0.010318	-0.046957	-0.113607	0.002783	0.002434	0.01278	-0.001447
0.1695	-0.008142	0.022098	-0.034785	-0.096178	0.001412	0.004402	0.012062	-0.000678
0.17	-0.008984	0.029284	-0.025409	-0.074286	0.000766	0.00488	0.007218	0.000986
0.1705	-0.009139	0.025605	-0.011727	-0.052951	0.000465	0.003624	0.000716	0.001786
0.171	-0.00885	0.01186	0.006661	-0.027494	-0.000461	0.000791	-0.004962	0.002361
0.1715	-0.009258	-0.00288	0.019627	0.003867	-0.001328	-0.00273	-0.007891	0.003385
0.172	-0.010944	-0.009615	0.018819	0.03586	-0.00059	-0.005702	-0.006959	0.005102
0.1725	-0.013187	-0.007052	0.006795	0.060813	0.001571	-0.006914	-0.003945	0.005188
0.173	-0.013306	-0.000761	-0.005868	0.075578	0.00237	-0.006399	-0.002177	0.001453
0.1735	-0.009232	0.003453	-0.011375	0.083196	0.000698	-0.005307	-0.001963	-0.002495
0.174	-0.002623	0.003881	-0.013484	0.088814	-0.00036	-0.004356	-0.000377	-0.001272
0.1745	0.002527	0.002188	-0.023746	0.094183	0.001417	-0.0028	0.003876	0.00384
0.175	0.004003	0.000249	-0.048242	0.097741	0.004117	0.00054	0.007418	0.006428
0.1755	0.002479	-0.001996	-0.080675	0.100741	0.005477	0.004168	0.006582	0.004993
0.176	0.000469	-0.004341	-0.108536	0.10406	0.005396	0.006165	0.003191	0.003752
0.1765	0.000619	-0.005732	-0.124079	0.10196	0.004634	0.007506	0.001462	0.004308
0.177	0.002288	-0.00678	-0.125516	0.088991	0.003948	0.00803	0.001778	0.00431
0.1775	0.002873	-0.007318	-0.107516	0.066031	0.003423	0.005393	0.002206	0.001657
0.178	0.002598	-0.004845	-0.059507	0.037414	0.002583	0.001157	0.002156	-0.002633
0.1785	0.002326	0.000389	0.023255	0.009625	0.001006	0.000302	0.001998	-0.004568
0.179	0.000361	0.004329	0.125262	-0.009918	-0.001016	0.002684	0.003005	-0.002351
0.1795	-0.003488	0.00517	0.204581	-0.017992	-0.001806	0.003922	0.005969	-5.7e-05
0.18	-0.006523	0.005009	0.216041	-0.017219	-0.00073	0.002857	0.008589	-0.001446
0.1805	-0.00763	0.005081	0.155621	-0.012953	0.000597	0.000597	0.007881	-0.003205
0.181	-0.006802	0.004362	0.070722	-0.011094	0.001124	-0.001383	0.003305	-0.001604
0.1815	-0.002189	0.002138	0.01707	-0.013627	0.001335	-0.001858	-0.003046	0.000525
0.182	0.006204	-0.000394	0.01852	-0.016637	0.001472	-0.001715	-0.007057	0.000126
0.1825	0.01305	-0.000446	0.064216	-0.017273	0.000804	-0.001315	-0.005397	-0.001377
0.183	0.012844	0.00216	0.118253	-0.016891	-0.000707	0.00067	0.000469	-0.001714
0.1835	0.006869	0.002948	0.137641	-0.016452	-0.001959	0.003701	0.005009	-0.000847
0.184	0.001556	-0.000587	0.105774	-0.014946	-0.002684	0.004728	0.005058	-0.001066
0.1845	0.000479	-0.00495	0.044163	-0.012926	-0.003043	0.002989	0.002227	-0.003373
0.185	0.000978	-0.006791	-0.015922	-0.012469	-0.002449	0.001726	-0.001063	-0.004683
0.1855	-0.000802	-0.007365	-0.057153	-0.01275	-0.001248	0.00263	-0.003278	-0.003112
0.186	-0.003683	-0.008576	-0.072079	-0.011494	-0.000611	0.003795	-0.003918	-0.001998
0.1865	-0.003665	-0.010191	-0.060537	-0.00902	-0.00078	0.002842	-0.004544	-0.003551
0.187	-0.000981	-0.011395	-0.035969	-0.007844	-0.001126	1e-06	-0.006793	-0.005376
0.1875	0.000982	-0.011364	-0.017504	-0.008627	-0.000517	-0.001372	-0.009094	-0.005143
0.188	0.001545	-0.009422	-0.010922	-0.008378	0.001101	0.000533	-0.007781	-0.003424
0.1885	0.001889	-0.006476	-0.007536	-0.006645	0.001805	0.003943	-0.002238	-0.002352
0.189	0.00206	-0.004972	-0.00211	-0.006257	0.000555	0.006079	0.002735	-0.00223
0.1895	0.002201	-0.004999	0.001733	-0.007209	-0.000604	0.005006	0.001645	-0.002152
0.19	0.003282	-0.004028	0.002829	-0.008304	0.000376	0.002041	-0.005962	-0.002721
0.1905	0.005938	-0.001781	0.004896	-0.009711	0.002095	0.000827	-0.015712	-0.003831
0.191	0.009637	0.000215	0.008277	-0.011168	0.002379	0.002279	-0.021991	-0.004087
0.1915	0.012072	0.000988	0.00905	-0.012774	0.00129	0.004267	-0.022887	-0.00327
0.192	0.010829	0.000481	0.006396	-0.01691	-9.3e-05	0.005478	-0.023938	-0.002746
0.1925	0.006129	0.000103	0.003506	-0.025544	-0.001437	0.005194	-0.032978	-0.003554
0.193	0.001239	0.000879	0.001416	-0.036641	-0.002818	0.002466	-0.048326	-0.004367
0.1935	-0.000149	0.002251	-0.001443	-0.046341	-0.003391	-0.00047	-0.056784	-0.003491
0.194	0.001559	0.001886	-0.005361	-0.050766	-0.003007	-0.000502	-0.047195	-0.00118
0.1945	0.002311	-0.00199	-0.008557	-0.047251	-0.002584	0.00067	-0.021733	0.001246
0.195	0.000138	-0.0057	-0.009195	-0.039386	-0.001163	0.000804	0.006345	0.001571
0.1955	-0.003806	-0.004601	-0.00845	-0.032627	0.001576	0.000538	0.022878	-0.000789
0.196	-0.007436	-0.000529	-0.009191	-0.024601	0.002907	-0.000545	0.022825	-0.001998
0.1965	-0.008375	0.001937	-0.011111	-0.010345	0.002334	-0.002758	0.008813	-0.000237
0.197	-0.006083	0.001489	-0.01154	0.007742	0.002582	-0.00434	-0.015658	0.000448
0.1975	-0.002097	-0.000501	-0.010244	0.023745	0.003801	-0.00541	-0.041359	-0.001199
0.198	0.002022	-0.001948	-0.009496	0.036501	0.003726	-0.007763	-0.052211	-0.000793
0.1985	0.004404	-0.001165	-0.009718	0.046954	0.002529	-0.010334	-0.045255	0.002922
0.199	0.004057	0.000955	-0.009277	0.053028	0.001837	-0.010922	-0.04092	0.00584
0.1995	0.002052	0.002023	-0.008274	0.05307	0.001205	-0.009939	-0.052281	0.005651
0.2	-0.001061	0.001754	-0.007846	0.049449	-0.000421	-0.009113	-0.057271	0.004335
0.2005	-0.005225	0.001176	-0.007697	0.044871	-0.00243	-0.009409	-0.033063	0.004061
0.201	-0.008563	0.000937	-0.007729	0.039232	-0.003492	-0.010647	-0.003288	0.004984
0.2015	-0.009385	0.001513	-0.008304	0.032773	-0.00286	-0.012073	-0.011481	0.006201
0.202	-0.008716	0.002111	-0.007948	0.026515	-0.000687	-0.012524	-0.056857	0.006698
0.2025	-0.007992	0.001562	-0.00543	0.019132	0.001625	-0.010649	-0.093582	0.005771
0.203	-0.006444	0.000616	-0.00242	0.009119	0.002536	-0.006674	-0.093982	0.00357
0.2035	-0.002814	0.000239	-0.001271	-0.001162	0.002191	-0.002915	-0.081566	0.001069
0.204	0.001652	-5.2e-05	-0.002435	-0.006689	0.001599	-0.001927	-0.091317	-0.000972
0.2045	0.003838	-0.000272	-0.003889	-0.006289	0.001869	-0.003769	-0.121751	-0.002356
0.205	0.002336	-7.6e-05	-0.003687	-0.004377	0.002901	-0.005243	-0.134728	-0.002419
0.2055	-0.001127	-0.000144	-0.002753	-0.004996	0.002194	-0.004001	-0.080802	-0.000612
0.206	-0.003159	0.000212	-0.002249	-0.008339	-0.000495	-0.00104	0.060582	0.001811
0.2065	-0.001406	0.002324	-0.002092	-0.011056	-0.00141	0.002227	0.230782	0.003896
0.207	0.001936	0.004726	-0.002707	-0.011156	0.001042	0.004927	0.323634	0.006213
0.2075	0.0022	0.005628	-0.003837	-0.011489	0.003823	0.0053	0.324053	0.007431
0.208	-0.000373	0.005258	-0.004566	-0.013073	0.003665	0.002985	0.347237	0.004984
0.2085	-0.001244	0.004206	-0.005155	-0.013408	0.0008	0.00071	0.459034	0.000934
0.209	0.001145	0.003086	-0.005665	-0.013079	-0.002033	0.000513	0.541485	0.000268
0.2095	0.004533	0.002866	-0.004785	-0.014378	-0.003042	0.001606	0.439581	0.001325
0.21	0.006633	0.003197	-0.002736	-0.014963	-0.002923	0.001997	0.170864	-0.001521
0.2105	0.006695	0.002507	-0.001907	-0.011177	-0.002321	0.00071	-0.106063	-0.006521
0.211	0.005448	0.001072	-0.002247	-0.00639	-0.000437	-0.000604	-0.270135	-0.007991
0.2115	0.003597	0.000162	-0.001957	-0.007064	0.001946	-0.000422	-0.300435	-0.005254
0.212	0.000791	-0.000462	-0.001716	-0.014151	0.003233	0.000882	-0.222494	-0.001768
0.2125	-0.002627	-0.001061	-0.002325	-0.023943	0.004105	0.002245	-0.091354	-0.000574
0.213	-0.004933	-0.000918	-0.00269	-0.030826	0.004921	0.000878	0.000512	-0.001698
0.2135	-0.005278	0.000189	-0.002288	-0.030516	0.004195	-0.004562	-0.01527	-0.003733
0.214	-0.004974	0.001385	-0.002007	-0.025144	0.002134	-0.01033	-0.112515	-0.006099
0.2145	-0.005058	0.002451	-0.002393	-0.020843	0.001128	-0.01246	-0.202605	-0.008536
0.215	-0.004951	0.003954	-0.002931	-0.018789	0.001584	-0.010695	-0.220788	-0.010692
0.2155	-0.00508	0.004935	-0.003036	-0.015184	0.001429	-0.006454	-0.156492	-0.012314
0.216	-0.006298	0.003757	-0.001828	-0.009713	-0.000158	-0.001041	-0.042332	-0.013304
0.2165	-0.006688	0.000665	0.000892	-0.00357	-0.002333	0.004335	0.048008	-0.012758
0.217	-0.003267	-0.001967	0.002566	0.004352	-0.004403	0.008583	0.041279	-0.009769
0.2175	0.004366	-0.002186	0.000961	0.012842	-0.005839	0.010975	-0.044399	-0.005438
0.218	0.014327	-0.001226	-0.001901	0.020572	-0.006156	0.011567	-0.092363	-0.001048
0.2185	0.024024	-0.001253	-0.002047	0.028416	-0.005676	0.011208	-0.024505	0.00235
0.219	0.029762	-0.001933	0.00175	0.034773	-0.005186	0.010271	0.093948	0.002827
0.2195	0.028192	-0.001959	0.006479	0.037629	-0.004503	0.009185	0.145472	0.000622
0.22	0.019339	-0.001881	0.008233	0.03918	-0.003158	0.009629	0.113426	-0.001064
0.2205	0.00729	-0.003102	0.006268	0.04142	-0.001041	0.012051	0.071057	-0.00072
0.221	-0.001952	-0.00564	0.002445	0.041153	0.001892	0.014523	0.048813	0.000174
0.2215	-0.005455	-0.009486	-0.001092	0.035331	0.004256	0.014927	-0.008277	0.001048
0.222	-0.004932	-0.014427	-0.002813	0.025583	0.004894	0.012254	-0.14958	0.002458
0.2225	-0.002502	-0.017325	-0.002285	0.014232	0.004675	0.007213	-0.337755	0.003697
0.223	0.000112	-0.015293	-0.000575	0.003276	0.003941	0.002145	-0.476438	0.004386
0.2235	0.000214	-0.010029	0.000242	-0.004102	0.002782	-0.000792	-0.493112	0.005313
0.224	-0.002691	-0.005121	-0.000476	-0.00626	0.001808	-0.001943	-0.376358	0.006217
0.2245	-0.006037	-0.00312	-0.000926	-0.004928	0.000505	-0.003298	-0.160248	0.005887
0.225	-0.008077	-0.0048	4.1e-05	-0.003263	-0.001372	-0.005169	0.087664	0.004188
0.2255	-0.009381	-0.006781	0.001487	-0.003316	-0.002834	-0.005991	0.281411	0.00234
0.226	-0.011184	-0.003916	0.002361	-0.004987	-0.003302	-0.004592	0.367102	0.001821
0.2265	-0.012554	0.00447	0.002386	-0.006022	-0.002634	-0.001925	0.354611	0.002479
0.227	-0.011286	0.014656	0.002247	-0.004182	-0.001762	-0.00039	0.275844	0.00215
0.2275	-0.00862	0.022544	0.002574	-0.00102	-0.003049	-0.000918	0.144629	-0.000129
0.228	-0.007535	0.024689	0.003133	0.000149	-0.005946	-0.002331	-0.00103	-0.001857
0.2285	-0.007912	0.019446	0.005187	-0.00017	-0.006488	-0.002969	-0.058918	-0.000304
0.229	-0.008073	0.010228	0.010008	0.000725	-0.003767	-0.002318	0.053633	0.003271
0.2295	-0.007252	0.003543	0.01538	0.002668	-0.001314	-0.001252	0.267243	0.005409
0.23	-0.005076	0.002749	0.018223	0.002486	-0.002021	-0.000387	0.385013	0.005133
0.2305	-0.002176	0.005986	0.016953	-0.001367	-0.004931	-0.000578	0.288185	0.004984
0.231	4.3e-05	0.008729	0.011624	-0.006101	-0.006939	-0.002791	0.072767	0.006753
0.2315	0.001318	0.007956	0.004838	-0.008818	-0.006385	-0.004737	-0.0684	0.007889
0.232	0.001846	0.004797	0.000143	-0.00922	-0.004295	-0.002744	-0.055446	0.005736
0.2325	0.001442	0.002112	-0.000705	-0.007662	-0.002736	0.002609	0.038743	0.002018
0.233	0.000361	0.000597	0.000619	-0.005375	-0.002446	0.007565	0.110259	-0.001051
0.2335	-0.000889	-0.000303	0.000531	-0.003846	-0.002186	0.010086	0.120053	-0.004142
0.234	-0.001805	-0.000933	-0.002004	-0.002677	-0.001548	0.010365	0.087825	-0.006709
0.2345	-0.001763	-0.002174	-0.005593	-0.001587	-0.002276	0.009126	0.041737	-0.00654
0.235	-0.000689	-0.00389	-0.008935	-0.001229	-0.004293	0.006933	-0.012392	-0.004503
0.2355	0.000901	-0.004317	-0.010524	-0.00017	-0.005558	0.003911	-0.078489	-0.002509
0.236	0.002539	-0.002932	-0.009927	0.002587	-0.005695	0.000659	-0.13563	-0.000505
0.2365	0.003724	-0.001431	-0.008646	0.004325	-0.004613	-0.001212	-0.141824	0.00111
0.237	0.00473	-0.001322	-0.00829	0.00348	-0.002343	-0.001107	-0.088932	0.001688
0.2375	0.006022	-0.001922	-0.009855	0.001975	-0.000729	-0.00098	-0.027814	0.002655
0.238	0.006271	-0.001361	-0.012764	-0.000436	-0.000504	-0.002199	-0.014438	0.004874
0.2385	0.004744	0.000555	-0.014907	-0.006802	0.000204	-0.003542	-0.048388	0.005926
0.239	0.002861	0.002217	-0.014976	-0.015762	0.002243	-0.004667	-0.084284	0.004203
0.2395	0.001703	0.00389	-0.0128	-0.021768	0.00378	-0.006104	-0.09017	0.001365
0.24	0.001504	0.006633	-0.008677	-0.02181	0.003948	-0.006847	-0.073971	-0.000405
0.2405	0.002213	0.007797	-0.00389	-0.016672	0.003987	-0.006506	-0.058834	-0.000312
0.241	0.003464	0.004887	-0.000702	-0.010034	0.004318	-0.005206	-0.053261	0.000108
0.2415	0.004041	0.000201	-0.000342	-0.005517	0.003966	-0.002295	-0.050146	-0.000273
0.242	0.002353	-0.003312	-0.001715	-0.002606	0.002345	0.000643	-0.043787	0.000232
0.2425	-0.000568	-0.005777	-0.00384	-1.3e-05	0.000971	0.000773	-0.036858	0.001942
0.243	-0.001831	-0.008065	-0.006481	0.000437	0.001521	-0.001378	-0.032592	0.002891
0.2435	-0.001449	-0.00936	-0.00831	-0.002391	0.002408	-0.002917	-0.030904	0.003111
0.244	-0.001644	-0.008812	-0.008142	-0.005169	0.001366	-0.002801	-0.030988	0.004277
0.2445	-0.002693	-0.006579	-0.005942	-0.005	-0.000666	-0.002209	-0.03088	0.00546
0.245	-0.003525	-0.003688	-0.002298	-0.003836	-0.001869	-0.001898	-0.028102	0.004277
0.2455	-0.003914	-0.002256	0.00143	-0.003038	-0.002501	-0.001229	-0.023697	0.002091
0.246	-0.004227	-0.001549	0.004526	-0.001906	-0.003449	0.000534	-0.021969	0.00171
0.2465	-0.004909	0.002121	0.00744	-0.00188	-0.004632	0.002237	-0.024695	0.002352
0.247	-0.005554	0.00828	0.009938	-0.004008	-0.005207	0.001808	-0.028373	0.002046
0.2475	-0.00523	0.012398	0.011037	-0.006328	-0.003877	-0.000224	-0.028879	0.000803
0.248	-0.004431	0.012183	0.009891	-0.00735	5.6e-05	-0.001676	-0.026117	0.000428
0.2485	-0.003999	0.00786	0.007281	-0.00721	0.00481	-0.002645	-0.022048	0.002919
0.249	-0.003385	0.000577	0.005901	-0.005206	0.007324	-0.004571	-0.017855	0.006269
0.2495	-0.001884	-0.006264	0.006842	-0.001739	0.007115	-0.006406	-0.01493	0.004824
0.25	-0.000215	-0.009871	0.009156	0.001205	0.005574	-0.006217	-0.014681	-0.001458
0.2505	0.00036	-0.010799	0.011918	0.003476	0.003574	-0.00445	-0.017151	-0.005604
0.251	0.000461	-0.010273	0.013508	0.004584	0.002977	-0.002557	-0.021646	-0.004786
0.2515	0.001477	-0.009411	0.012346	0.003002	0.005318	-0.001493	-0.026696	-0.002995
0.252	0.002517	-0.008297	0.008811	-0.000342	0.008263	-0.000758	-0.030664	-0.002543
0.2525	0.001915	-0.005466	0.005119	-0.003442	0.008268	0.000963	-0.03571	-0.001624
0.253	0.000211	-0.003042	0.003639	-0.005818	0.005823	0.002431	-0.04923	0.000876
0.2535	-0.000551	-0.005446	0.004268	-0.007527	0.004171	0.001757	-0.078366	0.002994
0.254	0.000678	-0.010739	0.004742	-0.006676	0.004194	0.000463	-0.121557	0.002047
0.2545	0.00308	-0.012575	0.003941	-6.8e-05	0.004447	0.000647	-0.162527	-0.001162
0.255	0.00511	-0.009724	0.002768	0.011292	0.004223	0.001618	-0.171568	-0.003097
0.2555	0.005774	-0.005874	0.002331	0.020964	0.004106	0.001891	-0.122978	-0.003482
0.256	0.004685	-0.002344	0.002613	0.023662	0.004539	0.00152	-0.026185	-0.004707
0.2565	0.002297	0.001967	0.002835	0.019644	0.004484	0.001583	0.068177	-0.005909
0.257	0.000759	0.00607	0.002752	0.013168	0.002234	0.003247	0.11392	-0.004643
0.2575	0.001814	0.007939	0.002557	0.009177	-0.002016	0.006628	0.111879	-0.002264
0.258	0.003692	0.00722	0.001257	0.009193	-0.005362	0.009381	0.090122	-0.002202
0.2585	0.00412	0.00526	-0.001799	0.010271	-0.005114	0.00938	0.062756	-0.004922
0.259	0.003572	0.003674	-0.004539	0.011114	-0.002234	0.007459	0.031097	-0.006931
0.2595	0.002717	0.002684	-0.005045	0.012435	-0.000478	0.004916	0.009473	-0.00522
0.26	0.001787	0.002348	-0.004102	0.011465	-0.001672	0.002808	0.02265	-0.002491
0.2605	0.00155	0.00315	-0.003616	0.00804	-0.003788	0.002719	0.076239	-0.003102
0.261	0.001787	0.003775	-0.004725	0.006961	-0.003838	0.004286	0.146308	-0.005493
0.2615	0.001999	0.002933	-0.006354	0.007588	-0.001102	0.005285	0.201422	-0.005712
0.262	0.002454	0.003187	-0.006557	0.004892	0.001606	0.004648	0.223551	-0.003979
0.2625	0.002803	0.006819	-0.005436	-0.000347	0.001014	0.003294	0.205774	-0.001374
0.263	0.002273	0.010007	-0.004321	-0.003199	-0.001508	0.003034	0.145677	0.002644
0.2635	0.000867	0.008028	-0.004579	-0.003387	-0.00182	0.004484	0.056769	0.005135
0.264	-0.000508	0.001684	-0.006995	-0.003663	0.000897	0.005184	-0.020794	0.002711
0.2645	-0.000672	-0.005857	-0.00975	-0.003826	0.00419	0.002302	-0.044484	-0.001117
0.265	0.00043	-0.012888	-0.010188	-0.003435	0.005338	-0.002771	-0.01095	-0.001595
0.2655	0.001604	-0.018813	-0.008496	-0.003291	0.003324	-0.006905	0.04095	0.000556
0.266	0.002049	-0.022052	-0.006791	-0.003246	0.00102	-0.009331	0.070983	0.001963
0.2665	0.00196	-0.018956	-0.006139	-0.003532	0.001118	-0.010401	0.070865	0.000588
0.267	0.001504	-0.008158	-0.006335	-0.004589	0.001049	-0.010817	0.058504	-0.002185
0.2675	0.000384	0.004373	-0.006962	-0.00526	-0.001216	-0.011704	0.051532	-0.003215
0.268	-0.001036	0.010609	-0.006584	-0.004411	-0.002247	-0.012659	0.051387	-0.002159
0.2685	-0.001745	0.010143	-0.003634	-0.00352	0.000127	-0.011576	0.048514	-0.000635
0.269	-0.001596	0.008038	0.000807	-0.00431	0.002497	-0.00827	0.038489	0.001519
0.2695	-0.000853	0.006638	0.004947	-0.005719	0.001964	-0.005318	0.02884	0.003671
0.27	0.000438	0.005778	0.008547	-0.006276	-0.00048	-0.003739	0.029453	0.002801
0.2705	0.00144	0.005896	0.011045	-0.005084	-0.002967	-0.0021	0.03879	-0.000457
0.271	0.0014	0.007388	0.012167	-0.00232	-0.003815	0.00074	0.038581	-0.00149
0.2715	0.000935	0.009951	0.013027	-0.000281	-0.002539	0.004427	0.008572	0.000862
0.272	0.000336	0.012009	0.014498	0.000389	-0.001157	0.007391	-0.048895	0.003089
0.2725	-0.001539	0.010837	0.016049	0.001051	-0.001668	0.008873	-0.109466	0.002238
0.273	-0.004701	0.005966	0.015825	0.00107	-0.003933	0.009601	-0.151844	-0.000553
0.2735	-0.006466	0.00036	0.013167	-0.001249	-0.006205	0.009471	-0.171878	-0.001719
0.274	-0.004941	-0.003813	0.010276	-0.00472	-0.00651	0.007155	-0.173877	-5.2e-05
0.2745	-0.001996	-0.00638	0.009457	-0.006973	-0.004761	0.00326	-0.156792	0.001548
0.275	-0.000582	-0.006545	0.009662	-0.008183	-0.002277	0.000312	-0.115817	0.00019
0.2755	-0.000832	-0.00474	0.007714	-0.00775	1e-06	-0.001347	-0.057352	-0.002009
0.276	-0.000679	-0.003564	0.003131	-0.004336	0.001136	-0.002966	-0.004766	-0.001112
0.2765	0.000712	-0.003592	-0.001359	-0.000819	0.000817	-0.004909	0.01476	0.001143
0.277	0.002248	-0.002723	-0.003456	-0.000244	0.000526	-0.006974	-0.007228	0.000577
0.2775	0.002623	0.00073	-0.003167	-0.000336	0.001854	-0.007243	-0.050393	-0.001033
0.278	0.00181	0.005766	-0.00155	0.00129	0.003727	-0.004202	-0.084194	-0.000123
0.2785	0.000939	0.008946	0.000852	0.002132	0.003402	-0.001094	-0.087585	0.00154
0.279	0.000275	0.008188	0.002622	0.00086	0.001068	-0.00129	-0.043903	0.001968
0.2795	4e-05	0.004647	0.001486	-0.000312	0.000373	-0.002254	0.051637	0.002457
0.28	0.001275	0.000572	-0.002436	-0.001201	0.003062	-0.00093	0.15618	0.002671
0.2805	0.002103	-0.001933	-0.006188	-0.001723	0.005922	0.000773	0.188361	0.001066
0.281	-0.000308	-0.000921	-0.00759	-1.6e-05	0.004955	0.000947	0.11416	-0.000711
0.2815	-0.00355	0.003483	-0.007533	0.003003	0.001159	0.000983	-0.000201	0.000268
0.282	-0.003718	0.007371	-0.008288	0.004083	-0.000619	0.002105	-0.060525	0.002632
0.2825	-0.001606	0.00685	-0.010461	0.002129	0.001439	0.003265	-0.048914	0.00227
0.283	4.1e-05	0.003242	-0.011466	-0.00061	0.003353	0.003326	-0.01864	-0.000227
0.2835	7e-06	0.000664	-0.008083	-0.001853	0.001535	0.003503	-0.010031	-0.001163
0.284	-0.002053	-0.000221	-0.001335	-0.001479	-0.001576	0.004565	-0.015904	-0.000858
0.2845	-0.004772	-0.001665	0.003624	0.000499	-0.002156	0.004563	-0.015487	-0.001909
0.285	-0.005225	-0.003773	0.004421	0.004244	-0.000147	0.002348	-0.004102	-0.004194
0.2855	-0.003134	-0.005489	0.005581	0.007765	0.002705	-0.000631	0.010614	-0.005131
0.286	-0.001224	-0.008217	0.01098	0.008735	0.004934	-0.002321	0.021893	-0.00344
0.2865	-0.000946	-0.012368	0.016443	0.008314	0.006084	-0.002024	0.028849	-0.001137
0.287	-0.001547	-0.013698	0.016427	0.007967	0.006441	-0.001143	0.035086	-0.000809
0.2875	-0.001919	-0.008721	0.011573	0.006906	0.005753	-0.001248	0.041301	-0.002079
0.288	-0.001684	-0.001179	0.005161	0.00605	0.003759	-0.001801	0.035837	-0.002062
0.2885	-0.00082	0.002485	-0.001451	0.006094	0.001146	-0.001353	0.000523	-0.000403
0.289	0.000168	0.001679	-0.008441	0.004158	-0.00062	-0.0001	-0.062775	4.1e-05
0.2895	-0.000605	-0.000246	-0.015193	-0.000682	-0.000708	0.000387	-0.116878	-0.000361
0.29	-0.003382	-0.001461	-0.019719	-0.00487	-9.1e-05	-0.000123	-0.120001	0.000744
0.2905	-0.005168	-0.001382	-0.023488	-0.006223	0.00047	-0.000322	-0.071623	0.001104
0.291	-0.004578	0.000724	-0.034289	-0.006478	0.001479	0.000298	-0.011834	-0.001924
0.2915	-0.003528	0.004253	-0.058773	-0.00714	0.001939	0.001516	0.022212	-0.004587
0.292	-0.00248	0.005723	-0.093681	-0.00776	0.000502	0.003089	0.026478	-0.002252
0.2925	7.1e-05	0.003038	-0.126024	-0.007942	-0.00133	0.003605	0.018451	0.002756
0.293	0.002787	-0.000132	-0.140576	-0.008067	-0.001928	0.001828	0.011435	0.004883
0.2935	0.003073	0.001199	-0.132285	-0.009728	-0.001586	6.3e-05	0.008139	0.002327
0.294	0.001637	0.005727	-0.115234	-0.012877	-0.001538	0.000907	0.007025	-0.001242
0.2945	0.000331	0.006992	-0.109763	-0.013708	-0.002316	0.002036	0.006519	-0.000764
0.295	0.000462	0.000874	-0.113407	-0.010988	-0.00194	0.000813	0.006944	0.002741
0.2955	0.003077	-0.01302	-0.095757	-0.007821	0.000307	-0.00107	0.009105	0.004578
0.296	0.006839	-0.031357	-0.031165	-0.004957	0.001425	-0.001987	0.011452	0.004575
0.2965	0.008468	-0.043538	0.073751	-0.000596	-1.8e-05	-0.002646	0.011703	0.004849
0.297	0.006682	-0.037046	0.189019	0.004811	-0.001978	-0.003056	0.00954	0.004988
0.2975	0.004571	-0.011985	0.28363	0.008892	-0.002898	-0.002625	0.006625	0.003888
0.298	0.005597	0.015195	0.336773	0.010309	-0.002423	-0.001916	0.005663	0.00187
0.2985	0.008203	0.029034	0.341849	0.009737	-0.000311	-0.001473	0.007779	-0.000589
0.299	0.008793	0.029266	0.304122	0.009383	0.00184	-0.001739	0.011323	-0.002628
0.2995	0.007346	0.022954	0.230275	0.010471	0.001585	-0.003366	0.013021	-0.002527
0.3	0.005727	0.015026	0.126949	0.010833	-0.000704	-0.004915	0.009871	-0.001487
0.3005	0.00316	0.008651	0.014278	0.008231	-0.002363	-0.00444	0.003244	-0.002295
0.301	-0.001993	0.005188	-0.072513	0.004527	-0.00247	-0.002853	-0.001718	-0.00351
0.3015	-0.007469	0.003551	-0.107568	0.002572	-0.002705	-0.001523	-0.00351	-0.002163
0.302	-0.009581	0.00199	-0.095053	0.002266	-0.00353	-0.00039	-0.006877	0.001125
0.3025	-0.008701	0.000252	-0.061063	0.002843	-0.004052	0.000136	-0.015078	0.004106
0.303	-0.007861	-0.000568	-0.033057	0.004364	-0.004812	-0.000325	-0.023065	0.005705
0.3035	-0.008262	-0.000245	-0.025843	0.005077	-0.005726	-0.000812	-0.022832	0.004958
0.304	-0.008536	0.000195	-0.037239	0.003407	-0.00577	-0.001157	-0.013929	0.001552
0.3045	-0.007414	0.000189	-0.055618	0.00118	-0.005801	-0.00224	-0.005402	-0.002371
0.305	-0.005798	0.000277	-0.07095	0.00057	-0.006118	-0.003132	-0.00408	-0.004119
0.3055	-0.005149	0.000988	-0.075838	0.001724	-0.005651	-0.002377	-0.000847	-0.003231
0.306	-0.005104	0.001621	-0.063817	0.002575	-0.004982	-0.000514	0.023871	-0.002046
0.3065	-0.004884	0.001053	-0.03713	0.001724	-0.004835	0.000706	0.073923	-0.002033
0.307	-0.005389	-0.000143	-0.011504	0.001632	-0.004848	-0.000146	0.12063	-0.001009
0.3075	-0.006746	4.7e-05	-0.001291	0.003499	-0.004761	-0.002607	0.123682	0.002103
0.308	-0.006337	0.002168	-0.000848	0.005135	-0.004021	-0.004423	0.069453	0.00546
0.3085	-0.00273	0.004043	0.005782	0.005564	-0.001887	-0.003251	-0.01791	0.007955
0.309	0.001119	0.003531	0.018124	0.00532	0.000662	0.000971	-0.096664	0.008694
0.3095	0.001838	0.000877	0.020418	0.004611	0.000804	0.004713	-0.133271	0.006215
0.31	0.000289	-0.002753	0.006652	0.003333	-0.001429	0.005222	-0.120105	0.002313
0.3105	-7e-06	-0.006062	-0.013915	0.001622	-0.002425	0.00422	-0.077597	0.001792
0.311	0.002897	-0.006778	-0.0317	-0.000939	-0.00131	0.003714	-0.033654	0.004463
0.3115	0.006323	-0.004004	-0.042938	-0.004408	-0.000943	0.002172	0.002046	0.005434
0.312	0.005673	-0.000116	-0.046915	-0.006707	-0.002697	-0.00142	0.033062	0.004378
0.3125	0.001949	0.003363	-0.046377	-0.006737	-0.004396	-0.00376	0.049117	0.004279
0.313	0.000942	0.00849	-0.046682	-0.005563	-0.003929	-0.002123	0.03101	0.005287
0.3135	0.004238	0.015213	-0.050425	-0.003501	-0.00235	0.000858	-0.009756	0.006124
0.314	0.007308	0.018586	-0.054002	-0.001344	-0.001336	0.001588	-0.022154	0.005997
0.3145	0.006754	0.015931	-0.050698	-0.001841	-0.000285	0.00049	0.033121	0.004487
0.315	0.00409	0.009667	-0.034674	-0.005089	0.001485	-0.001208	0.130157	0.00306
0.3155	0.002108	0.003976	-0.003241	-0.007166	0.00226	-0.003892	0.196486	0.003048
0.316	0.001316	0.00314	0.038101	-0.006336	0.001052	-0.006384	0.192298	0.001987
0.3165	-5e-06	0.005355	0.074156	-0.004515	6.5e-05	-0.006565	0.147943	-0.001221
0.317	-0.00278	0.000504	0.087886	-0.003284	0.000916	-0.004426	0.104662	-0.00321
0.3175	-0.005334	-0.016446	0.071963	-0.002187	0.002018	-0.001732	0.049375	-0.002343
0.318	-0.00569	-0.035568	0.033902	0.000331	0.00106	0.000394	-0.051091	-0.000466
0.3185	-0.003294	-0.041497	-0.011333	0.003691	-0.001547	0.002883	-0.173843	-0.00061
0.319	0.000786	-0.030419	-0.051069	0.005961	-0.003302	0.005555	-0.248765	-0.003663
0.3195	0.00397	-0.013719	-0.077029	0.006953	-0.003058	0.006093	-0.236854	-0.005965
0.32	0.004703	-0.003556	-0.085285	0.005936	-0.001409	0.004565	-0.167847	-0.005023
0.3205	0.004239	-0.000656	-0.078478	0.001232	0.000118	0.003467	-0.11328	-0.003351
0.321	0.004286	0.001377	-0.066699	-0.006445	0.000426	0.003775	-0.132383	-0.003987
0.3215	0.00468	0.005066	-0.060863	-0.013705	0.000431	0.004853	-0.211636	-0.006178
0.322	0.00452	0.007216	-0.062036	-0.017023	0.0009	0.006395	-0.257059	-0.006843
0.3225	0.003398	0.006235	-0.062453	-0.01458	0.000858	0.007699	-0.188228	-0.005127
0.323	0.001463	0.004776	-0.055791	-0.007315	-0.000395	0.007829	-0.033152	-0.002571
0.3235	0.000354	0.005658	-0.039102	-0.000185	-0.001774	0.007622	0.111359	-0.001275
0.324	0.001605	0.008338	-0.010105	0.002261	-0.002511	0.00675	0.189323	-0.00222
0.3245	0.003543	0.009834	0.03258	0.000538	-0.003232	0.003168	0.207714	-0.003305
0.325	0.003536	0.008698	0.090371	-0.004379	-0.003083	-0.001367	0.185964	-0.002536
0.3255	0.002622	0.006031	0.159163	-0.012271	-0.001155	-0.003782	0.14036	-0.001474
0.326	0.003692	0.003811	0.215937	-0.019866	0.000427	-0.00516	0.088004	-0.002514
0.3265	0.005769	0.003065	0.225375	-0.023772	-4.5e-05	-0.007034	0.024331	-0.005099
0.327	0.005733	0.00297	0.175572	-0.02443	-0.001181	-0.007754	-0.065758	-0.00665
0.3275	0.003943	0.001456	0.098533	-0.024462	-0.001315	-0.006628	-0.148217	-0.005877
0.328	0.002533	-0.002629	0.040166	-0.0252	-0.000763	-0.00602	-0.144853	-0.003764
0.3285	0.001563	-0.006459	0.016624	-0.026302	-0.000404	-0.006041	-0.035105	-0.002394
0.329	-8.9e-05	-0.006544	0.011339	-0.026818	-0.000265	-0.003975	0.091554	-0.0025
0.3295	-0.002339	-0.003679	0.003314	-0.025196	0.000224	0.000252	0.132489	-0.003488
0.33	-0.003507	-0.000192	-0.015918	-0.019394	0.001169	0.004038	0.089661	-0.005306
0.3305	-0.002903	0.002277	-0.042909	-0.007377	0.000745	0.005833	0.046005	-0.006963
0.331	-0.002064	0.002343	-0.065897	0.010124	-0.001887	0.006936	0.06021	-0.007248
0.3315	-0.001468	0.000238	-0.073806	0.028077	-0.003201	0.00973	0.127648	-0.006829
0.332	0.00049	-0.001764	-0.066647	0.041354	-0.000545	0.013842	0.20314	-0.005992
0.3325	0.00358	-0.001166	-0.052344	0.049192	0.002648	0.016022	0.221493	-0.004529
0.333	0.005343	0.001814	-0.037023	0.053854	0.002449	0.014725	0.143406	-0.003343
0.3335	0.004927	0.003767	-0.025081	0.056442	0.00112	0.01194	0.016426	-0.002526
0.334	0.003295	0.001926	-0.022162	0.056578	0.002316	0.008937	-0.061805	-0.001123
0.3345	0.000897	-0.002221	-0.027383	0.052746	0.004655	0.005362	-0.063305	-0.000534
0.335	-0.002085	-0.006148	-0.030029	0.042646	0.005534	0.001916	-0.054987	-0.00318
0.3355	-0.004592	-0.01105	-0.025935	0.027563	0.005692	-0.00145	-0.093645	-0.006972
0.336	-0.005051	-0.01744	-0.026087	0.011587	0.006769	-0.005034	-0.155895	-0.00789
0.3365	-0.003255	-0.020714	-0.038649	-0.002222	0.0086	-0.006914	-0.185708	-0.006068
0.337	-0.001505	-0.016568	-0.054705	-0.009736	0.010196	-0.006048	-0.166509	-0.003745
0.3375	-0.001458	-0.006959	-0.061855	-0.008678	0.010646	-0.003742	-0.124703	-0.002113
0.338	-0.001473	0.001449	-0.063558	-0.004048	0.009574	-0.001863	-0.084167	-0.001893
0.3385	-2.7e-05	0.003827	-0.070222	-0.001701	0.008146	-0.001838	-0.047137	-0.00272
0.339	0.00137	0.001805	-0.071881	-0.001603	0.007358	-0.003058	-0.01092	-0.002856
0.3395	0.000882	0.001587	-0.040131	-0.002215	0.006053	-0.003616	0.038703	-0.001864
0.34	-0.000915	0.007008	0.030737	-0.003463	0.003837	-0.003298	0.141521	-0.001023
0.3405	-0.002127	0.014794	0.103112	-0.004309	0.003309	-0.003104	0.302915	-0.000241
0.341	-0.001659	0.018739	0.136726	-0.00402	0.005801	-0.00314	0.422721	0.001483
0.3415	-0.000435	0.017623	0.134506	-0.00342	0.008639	-0.003434	0.374993	0.00357
0.342	5.8e-05	0.015562	0.12441	-0.003339	0.00913	-0.004141	0.177018	0.005147
0.3425	-0.000119	0.016008	0.110384	-0.003915	0.007698	-0.004345	-0.010788	0.006079
0.343	-0.000851	0.018467	0.074815	-0.004287	0.006201	-0.003684	-0.079301	0.00602
0.3435	-0.001858	0.019615	0.024098	-0.004325	0.004947	-0.00293	-0.075485	0.004825
0.344	-0.00138	0.016029	-0.006977	-0.004812	0.002744	-0.002016	-0.085367	0.003147
0.3445	0.001084	0.006169	-0.002319	-0.004633	0.000517	-0.000781	-0.108775	0.001755
0.345	0.00352	-0.008494	0.014184	-0.002624	0.000904	-0.000136	-0.099552	0.001587
0.3455	0.004267	-0.022966	0.012011	-0.000952	0.003221	-0.0007	-0.059877	0.00335
0.346	0.00429	-0.03125	-0.013481	-0.001994	0.004573	-0.002044	-0.035696	0.005076
0.3465	0.004584	-0.030184	-0.049256	-0.004389	0.004134	-0.003446	-0.045974	0.004517
0.347	0.003597	-0.021013	-0.084047	-0.005756	0.0032	-0.00422	-0.064244	0.003342
0.3475	0.001015	-0.009027	-0.104995	-0.005848	0.00308	-0.003876	-0.067596	0.003506
0.348	-0.000825	-0.000274	-0.095237	-0.005174	0.002761	-0.003321	-0.065807	0.004492
0.3485	-0.00115	0.003444	-0.056746	-0.004947	0.00147	-0.003801	-0.07508	0.005771
0.349	-0.001632	0.003973	-0.022621	-0.006835	0.000903	-0.003835	-0.091237	0.007097
0.3495	-0.00298	0.002095	-0.029084	-0.009387	0.000878	-0.001863	-0.100408	0.00769
0.35	-0.003232	-0.001747	-0.076963	-0.009729	-0.00053	-0.000488	-0.101953	0.006872
0.3505	-0.000799	-0.005046	-0.120343	-0.008379	-0.00301	-0.001795	-0.106352	0.005166
0.351	0.002525	-0.006073	-0.092827	-0.007675	-0.005452	-0.003182	-0.113045	0.004344
0.3515	0.003505	-0.00465	0.031767	-0.008005	-0.007728	-0.00246	-0.105029	0.005454
0.352	0.00168	0.000315	0.186028	-0.008783	-0.009171	-0.000482	-0.071884	0.006869
0.3525	2.6e-05	0.007369	0.246283	-0.010635	-0.009095	0.001238	-0.024047	0.006371
0.353	0.000353	0.010524	0.157447	-0.013049	-0.008604	0.001093	0.031298	0.004899
0.3535	0.001078	0.007155	-0.002891	-0.014531	-0.008172	-0.000626	0.103962	0.004881
0.354	0.000186	0.000956	-0.113337	-0.014803	-0.006546	-0.001431	0.179186	0.006588
0.3545	-0.002805	-0.003767	-0.130602	-0.013135	-0.004287	-0.001177	0.196781	0.0082
0.355	-0.006272	-0.003972	-0.095655	-0.009765	-0.002542	-0.001938	0.121438	0.007926
0.3555	-0.007663	0.000836	-0.0588	-0.007071	-0.000338	-0.003601	0.009414	0.00606
0.356	-0.006697	0.00669	-0.035107	-0.006485	0.002545	-0.004094	-0.044371	0.004255
0.3565	-0.005136	0.009555	-0.008556	-0.006204	0.00469	-0.002989	-0.013644	0.00382
0.357	-0.003495	0.009731	0.045099	-0.003635	0.004904	-0.001417	0.042399	0.004485
0.3575	-0.001336	0.009403	0.122906	0.00026	0.002344	-0.000111	0.061836	0.004208
0.358	0.000247	0.008667	0.175003	0.003893	-0.002126	5.2e-05	0.043927	0.002978
0.3585	0.00088	0.00662	0.14871	0.00726	-0.005096	-0.000267	0.025173	0.002557
0.359	0.002328	0.004052	0.05667	0.009958	-0.004741	0.000846	0.022674	0.002637
0.3595	0.004371	0.001437	-0.032006	0.011942	-0.003135	0.001759	0.02241	0.003299
0.36	0.004639	-0.003552	-0.071479	0.011243	-0.002174	0.000396	0.010282	0.004516
0.3605	0.002795	-0.012696	-0.079478	0.003494	-0.001891	-0.001389	-0.006608	0.003487
0.361	0.000635	-0.021956	-0.094127	-0.012006	-0.002587	-0.002131	-0.011944	0.00029
0.3615	-0.000422	-0.023012	-0.119761	-0.030533	-0.004181	-0.002711	-0.00297	-0.001361
0.362	-0.000358	-0.012328	-0.130301	-0.046649	-0.005137	-0.003342	0.007565	-0.000967
0.3625	-0.000419	0.003189	-0.106046	-0.056229	-0.004178	-0.002844	0.008698	-0.000502
0.363	-0.001723	0.013112	-0.048347	-0.055797	-0.002404	-0.000584	0.001092	-0.000384
0.3635	-0.003481	0.014576	0.027591	-0.045556	-0.001943	0.00267	-0.008763	-0.000329
0.364	-0.003971	0.012125	0.095954	-0.029812	-0.002745	0.006071	-0.016391	-0.00023
0.3645	-0.002765	0.009286	0.127165	-0.012321	-0.002832	0.009193	-0.020202	5e-06
0.365	-0.001273	0.005987	0.109395	0.005488	-0.001393	0.011982	-0.019338	-0.000191
0.3655	-0.001436	0.001563	0.064052	0.023087	-0.000465	0.014707	-0.013685	-0.001201
0.366	-0.002844	-0.003124	0.0311	0.038804	-0.002162	0.015642	-0.006623	-0.002225
0.3665	-0.003662	-0.005013	0.033285	0.049954	-0.005596	0.012249	-0.007382	-0.003078
0.367	-0.004362	-0.0023	0.057983	0.056466	-0.007631	0.007016	-0.025088	-0.004573
0.3675	-0.006209	0.001554	0.075928	0.061709	-0.006386	0.004386	-0.058102	-0.005969
0.368	-0.008865	0.002122	0.070724	0.066784	-0.004274	0.003379	-0.093884	-0.005597
0.3685	-0.010973	0.000304	0.048191	0.067906	-0.003264	0.00103	-0.116999	-0.004547
0.369	-0.010879	6e-06	0.024839	0.062908	-0.00169	-0.002487	-0.11559	-0.005461
0.3695	-0.008793	0.002557	0.011507	0.05435	8e-06	-0.005578	-0.089558	-0.007591
0.37	-0.006857	0.006116	0.005778	0.044668	8.2e-05	-0.006923	-0.053815	-0.007933
0.3705	-0.005693	0.008165	-0.001729	0.033991	-0.000493	-0.005512	-0.025319	-0.006252
0.371	-0.004363	0.008199	-0.015609	0.021769	-0.000562	-0.001795	-0.009109	-0.0054
0.3715	-0.002985	0.007795	-0.032083	0.008348	-0.000281	0.001552	-0.001063	-0.006923
0.372	-0.002498	0.007363	-0.044265	-0.004648	0.000435	0.002307	0.002978	-0.007726
0.3725	-0.002605	0.006151	-0.047137	-0.015179	0.002018	0.001498	0.004691	-0.004971
0.373	-0.002005	0.004529	-0.039467	-0.021146	0.003444	0.001352	0.004889	-0.001666
0.3735	-0.000167	0.003038	-0.024733	-0.022268	0.003245	0.002324	0.004639	-0.001325
0.374	0.002331	0.001433	-0.010112	-0.020956	0.002118	0.002994	0.004887	-0.003026
0.3745	0.003878	-0.001289	-0.002123	-0.01883	0.000997	0.001746	0.006054	-0.00486
0.375	0.002803	-0.006281	-0.002265	-0.016171	-0.001246	-0.001343	0.008675	-0.006578
0.3755	8.2e-05	-0.01186	-0.008415	-0.013995	-0.00498	-0.004454	0.013899	-0.008029
0.376	-0.001299	-0.014159	-0.018614	-0.012901	-0.007048	-0.005468	0.022384	-0.007775
0.3765	-0.000421	-0.012492	-0.029963	-0.011607	-0.004557	-0.004598	0.032389	-0.004852
0.377	0.00122	-0.010077	-0.037577	-0.009357	-4.2e-05	-0.004068	0.042	-0.001005
0.3775	0.002462	-0.008445	-0.038701	-0.008262	0.001943	-0.003639	0.052575	0.000986
0.378	0.002768	-0.005523	-0.035358	-0.008343	0.000877	-0.002138	0.064685	0.001776
0.3785	0.002003	-0.001355	-0.031373	-0.006602	-0.001437	-0.00112	0.075372	0.003866
0.379	0.001586	0.000489	-0.027314	-0.004559	-0.003439	-0.001589	0.08321	0.004861
0.3795	0.003235	-0.001835	-0.020462	-0.005198	-0.003106	-0.002008	0.086455	0.00114
0.38	0.006041	-0.00666	-0.011688	-0.006284	-0.00029	-0.001255	0.074344	-0.003614
0.3805	0.007433	-0.010504	-0.005945	-0.005857	0.002118	-0.000284	0.031477	-0.003544
0.381	0.007277	-0.011151	-0.003966	-0.005759	0.00233	0.000165	-0.039414	0.000269
0.3815	0.007472	-0.008949	-0.001626	-0.006376	0.000964	0.000581	-0.101236	0.003363
0.382	0.007581	-0.003431	0.002763	-0.006218	-0.000366	0.000591	-0.107837	0.003984
0.3825	0.006099	0.005704	0.006374	-0.00607	0.000499	-0.000154	-0.057164	0.001562
0.383	0.003741	0.012882	0.006039	-0.00674	0.003061	-0.001178	-0.00202	-0.002643
0.3835	0.001815	0.010794	0.001137	-0.006834	0.004626	-0.002905	0.007942	-0.005447
0.384	0.00134	0.00037	-0.006394	-0.005779	0.004648	-0.005218	-0.018621	-0.00606
0.3845	0.002611	-0.010788	-0.012353	-0.004546	0.003639	-0.006096	-0.033085	-0.004538
0.385	0.003952	-0.018309	-0.01126	-0.0043	0.002118	-0.004474	-0.00992	-0.001457
0.3855	0.003671	-0.02385	-0.000622	-0.004335	0.00121	-0.001898	0.027492	1.5e-05
0.386	0.00243	-0.027205	0.012261	-0.003478	0.000949	5.8e-05	0.042562	-0.00085
0.3865	0.001765	-0.022112	0.011742	-0.002912	0.00015	0.001681	0.028882	-0.000805
0.387	0.000861	-0.005508	-0.012543	-0.00323	-0.001618	0.003392	0.009561	0.001231
0.3875	-0.001738	0.015077	-0.054858	-0.004096	-0.002991	0.004631	0.004263	0.00303
0.388	-0.004838	0.027299	-0.097916	-0.004808	-0.002941	0.004841	0.010597	0.004011
0.3885	-0.006808	0.025933	-0.127459	-0.004058	-0.002241	0.003959	0.015898	0.003975
0.389	-0.007578	0.018738	-0.140413	-0.003294	-0.001035	0.002489	0.01511	0.000956
0.3895	-0.007114	0.01544	-0.140488	-0.00355	0.001195	0.001027	0.012909	-0.002461
0.39	-0.005298	0.014872	-0.13154	-0.003085	0.003623	-0.000336	0.013715	-0.001161
0.3905	-0.002781	0.011803	-0.111485	-0.003057	0.005339	-0.001401	0.016003	0.002869
0.391	-6.4e-05	0.007219	-0.064298	-0.004658	0.005967	-0.001459	0.016841	0.003805
0.3915	0.002699	0.004062	0.027836	-0.003629	0.004711	-0.000147	0.016224	0.000975
0.392	0.005204	0.002412	0.143373	0.001097	0.002356	0.001545	0.014545	-0.002136
0.3925	0.006872	0.001832	0.215103	0.003253	0.001279	0.001649	0.010203	-0.003788
0.393	0.006934	0.001984	0.200849	0.000998	0.001506	-0.000171	0.003004	-0.004158
0.3935	0.006008	0.002087	0.140986	-0.000803	0.001721	-0.001578	-0.003786	-0.00306
0.394	0.005191	0.001498	0.107578	-0.000336	0.001941	-0.001156	-0.006842	-0.000938
0.3945	0.004016	-0.000113	0.113511	0.00059	0.00177	-2.8e-05	-0.005192	0.00068
0.395	0.002489	-0.001498	0.115548	0.001592	5.6e-05	0.000628	-0.000619	0.001392
0.3955	0.001596	-0.001003	0.093244	0.00301	-0.002856	6.5e-05	0.003647	0.002246
0.396	0.001321	-0.000114	0.070867	0.003739	-0.003747	-0.001661	0.006193	0.002845
0.3965	0.001644	-0.001823	0.064445	0.003026	-0.000447	-0.002936	0.007786	0.00169
0.397	0.003128	-0.005462	0.057154	0.001809	0.003344	-0.003146	0.009161	-0.000695
0.3975	0.005338	-0.007103	0.034715	0.000769	0.003934	-0.003235	0.010144	-0.002176
0.398	0.007263	-0.005418	0.009469	0.000283	0.00356	-0.003138	0.010622	-0.001219
0.3985	0.007798	-0.002437	-0.002675	0.001349	0.004316	-0.00188	0.010362	0.001204
0.399	0.005744	0.001265	-0.004606	0.00394	0.004677	0.000316	0.008448	0.002635
0.3995	0.002439	0.005949	-0.006505	0.006715	0.004319	0.001703	0.005651	0.003539
0.4	0.001358	0.008618	-0.009939	0.008295	0.004217	0.00198	0.004282	0.005982
0.4005	0.002457	0.005594	-0.011824	0.007989	0.00336	0.003074	0.004778	0.008521
0.401	0.002745	-0.001245	-0.01201	0.006029	0.001255	0.005085	0.005545	0.007656
0.4015	0.002109	-0.005557	-0.011345	0.003544	-0.000378	0.006001	0.005053	0.003476
0.402	0.001271	-0.004502	-0.010177	0.00258	-0.001018	0.005235	0.002549	0.000413
0.4025	-0.000942	-0.002049	-0.009994	0.003523	-0.001459	0.003844	-0.002091	0.000523
0.403	-0.003559	-0.003285	-0.011503	0.004357	-0.001528	0.002891	-0.006393	0.000502
0.4035	-0.004011	-0.007675	-0.01321	0.004727	-0.000874	0.002363	-0.006442	-0.001214
0.404	-0.002551	-0.010446	-0.013896	0.00567	0.000227	0.001396	-0.004177	-0.001423
0.4045	-0.001553	-0.009336	-0.014511	0.006189	0.001232	0.000386	-0.00624	0.000674
0.405	-0.001585	-0.005305	-0.01727	0.0049	0.001194	0.000808	-0.013661	0.001144
0.4055	-0.000622	0.001133	-0.021953	0.003221	-0.000191	0.001904	-0.021411	-0.000718
0.406	0.001959	0.009864	-0.023989	0.002587	-0.001356	0.001226	-0.027561	-0.001122
0.4065	0.003396	0.01932	-0.020555	0.001456	-0.001058	-0.001279	-0.035281	1.1e-05
0.407	0.001175	0.0244	-0.015061	-0.001162	-0.000372	-0.003311	-0.045743	-0.000798
0.4075	-0.002817	0.018487	-0.010747	-0.00435	-0.000496	-0.00337	-0.055882	-0.004201
0.408	-0.004519	0.001765	-0.005933	-0.00645	-0.00121	-0.002412	-0.064206	-0.006452
0.4085	-0.00329	-0.016075	0.002243	-0.00572	-0.002401	-0.002396	-0.071387	-0.003275
0.409	-0.001127	-0.023242	0.014336	-0.003557	-0.003769	-0.00296	-0.073487	0.003323
0.4095	0.000711	-0.015846	0.027924	-0.003164	-0.004305	-0.002163	-0.061447	0.00645
0.41	0.001665	-0.002985	0.035671	-0.004224	-0.004554	-0.000571	-0.032641	0.004256
0.4105	0.001547	0.001923	0.027691	-0.003535	-0.005107	-0.000683	0.000329	0.00173
0.411	0.000325	-0.002117	0.003967	-0.00118	-0.004445	-0.002405	0.019637	0.002257
0.4115	-0.002506	-0.004191	-0.0216	-0.000791	-0.003129	-0.003255	0.020109	0.004118
0.412	-0.006429	5.7e-05	-0.034761	-0.002598	-0.003864	-0.002369	0.013699	0.005325
0.4125	-0.008318	0.00411	-0.032328	-0.004244	-0.005546	-0.000613	0.013703	0.004979
0.413	-0.006334	0.003278	-0.023719	-0.004481	-0.004473	0.001032	0.018981	0.003158
0.4135	-0.003414	-0.00046	-0.027374	-0.002164	-0.000467	0.002119	0.03191	0.002897
0.414	-0.002416	-0.003148	-0.06001	0.000105	0.002828	0.003125	0.077578	0.005498
0.4145	-0.00216	-0.003855	-0.119541	-0.001366	0.002939	0.004179	0.162746	0.008107
0.415	-0.001239	-0.005447	-0.176556	-0.002659	0.001172	0.004689	0.230391	0.010075
0.4155	-0.00042	-0.009587	-0.195171	-0.00014	-0.000452	0.004085	0.207924	0.012427
0.416	0.000159	-0.013426	-0.169143	0.001024	-0.001699	0.002339	0.099781	0.012515
0.4165	0.001018	-0.013319	-0.124766	-0.001677	-0.002593	0.000307	-0.011116	0.008543
0.417	0.000471	-0.009301	-0.082687	-0.002425	-0.002099	-0.001246	-0.05948	0.004201
0.4175	-0.003442	-0.003798	-0.0319	7.7e-05	0.000423	-0.001929	-0.056556	0.002286
0.418	-0.008585	0.001472	0.047563	-0.000226	0.003468	-0.002292	-0.046933	0.001014
0.4185	-0.010421	0.006647	0.149131	-0.006171	0.004952	-0.003556	-0.048753	-0.001335
0.419	-0.008639	0.012502	0.244573	-0.014814	0.00477	-0.004891	-0.054049	-0.00372
0.4195	-0.007478	0.017222	0.310042	-0.021095	0.00443	-0.004367	-0.059611	-0.00441
0.42	-0.008462	0.016596	0.324379	-0.022775	0.005241	-0.002438	-0.073658	-0.004561
0.4205	-0.008304	0.009521	0.267191	-0.023072	0.006402	-0.001476	-0.096747	-0.005782
0.421	-0.004701	0.002459	0.151921	-0.025212	0.00538	-0.002265	-0.108353	-0.006543
0.4215	-0.000305	0.003663	0.033681	-0.028512	0.001854	-0.003417	-0.081356	-0.006143
0.422	0.001053	0.01293	-0.047413	-0.030908	-0.001582	-0.003748	-0.016174	-0.006279
0.4225	5.5e-05	0.022093	-0.102315	-0.030931	-0.003328	-0.002917	0.04967	-0.008051
0.423	-0.000159	0.02307	-0.148405	-0.027333	-0.003905	-0.001647	0.079857	-0.010366
0.4235	0.001243	0.014536	-0.169492	-0.01882	-0.003746	-0.001342	0.074564	-0.010612
0.424	0.002876	0.003006	-0.152963	-0.004589	-0.002566	-0.001868	0.055393	-0.008149
0.4245	0.003388	-0.003948	-0.125682	0.013768	-0.00049	-0.001791	0.038283	-0.005713
0.425	0.003283	-0.003955	-0.116522	0.031885	0.001279	-0.000395	0.033742	-0.006169
0.4255	0.003631	-0.000357	-0.117692	0.047205	0.001309	0.001172	0.046916	-0.008313
0.426	0.003424	0.001167	-0.109951	0.059736	5.6e-05	0.000981	0.06545	-0.008142
0.4265	0.001465	-0.000826	-0.093198	0.067587	-0.000587	-0.000201	0.059425	-0.005157
0.427	-0.000685	-0.002864	-0.073787	0.068899	-0.000752	-0.000124	-0.004686	-0.002134
0.4275	-0.001274	-0.003687	-0.050659	0.064864	-0.003117	0.000829	-0.135482	-8e-05
0.428	-0.001128	-0.005046	-0.02914	0.054941	-0.008284	0.001379	-0.274015	0.001477
0.4285	-0.000829	-0.006412	-0.027496	0.035929	-0.012054	0.001622	-0.302688	0.002287
0.429	0.000468	-0.005464	-0.053662	0.01151	-0.011247	0.001569	-0.158317	0.002266
0.4295	0.002801	-0.002474	-0.083271	-0.006808	-0.007967	0.000805	0.062971	0.002306
0.43	0.005652	-0.000405	-0.074389	-0.012725	-0.004158	-0.000449	0.180114	0.002332
0.4305	0.007855	-0.00096	-0.010196	-0.009154	0.000735	-0.001597	0.124262	0.001441
0.431	0.007284	-0.002694	0.078906	-0.002228	0.004756	-0.002567	0.000183	0.000192
0.4315	0.003937	-0.003937	0.14441	0.001869	0.003643	-0.003618	-0.063161	-0.000739
0.432	0.000279	-0.00556	0.165615	0.000671	-0.002871	-0.004434	-0.048735	-0.001161
0.4325	-0.001961	-0.009216	0.160145	-0.003458	-0.009253	-0.004004	-0.012531	-0.000951
0.433	-0.00192	-0.014067	0.155078	-0.006948	-0.009208	-0.001842	0.013363	-0.0009
0.4335	0.00121	-0.016829	0.155615	-0.00753	-0.002139	0.001108	0.029209	-0.001325
0.434	0.006488	-0.016337	0.145054	-0.005949	0.005708	0.003613	0.032642	-0.00135
0.4345	0.010582	-0.014812	0.111705	-0.005441	0.009534	0.006001	0.02481	-0.000575
0.435	0.011554	-0.012879	0.065438	-0.007868	0.013729	0.008781	0.023034	-0.000459
0.4355	0.010699	-0.009213	0.023238	-0.010834	0.023985	0.01054	0.033887	-0.002013
0.436	0.008565	-0.004092	-0.011171	-0.01079	0.034542	0.010219	0.03607	-0.003347
0.4365	0.004833	0.000807	-0.04409	-0.007594	0.034334	0.007805	0.016763	-0.002553
0.437	0.001312	0.003697	-0.073801	-0.00377	0.02346	0.00331	-0.000347	1.7e-05
0.4375	-0.000253	0.004472	-0.087493	-0.002192	0.011683	-0.000862	0.007792	0.002306
0.438	-0.000844	0.006103	-0.079782	-0.003746	0.00108	-0.001599	0.024664	0.002675
0.4385	-0.001817	0.0121	-0.063258	-0.006146	-0.015672	3.9e-05	0.02503	0.001545
0.439	-0.002164	0.02166	-0.052669	-0.007371	-0.034691	0.001123	0.01846	-0.000383
0.4395	-0.000959	0.027967	-0.046646	-0.008042	-0.037659	0.001373	0.029228	-0.001777
0.44	6.7e-05	0.025205	-0.034686	-0.008294	-0.02062	0.001578	0.059366	-0.000686
0.4405	-0.000552	0.017508	-0.017862	-0.007164	-0.004624	0.001568	0.097642	0.001431
0.441	-0.001204	0.013021	-0.005441	-0.006168	-0.005152	0.001655	0.134442	0.001111
0.4415	-0.000521	0.00994	0.009799	-0.006575	-0.012034	0.001947	0.145358	-0.000751
0.442	-0.000673	0.00101	0.048284	-0.006639	-0.010067	0.001114	0.095898	-0.000366
0.4425	-0.003411	-0.011941	0.10855	-0.006313	-0.001468	-0.000866	-0.006573	0.001854
0.443	-0.006576	-0.020685	0.157514	-0.006294	0.001863	-0.001669	-0.092592	0.003027
0.4435	-0.006638	-0.021216	0.165069	-0.005051	-0.001792	0.000396	-0.098145	0.002365
0.444	-0.002612	-0.01645	0.133269	-0.003098	-0.002811	0.003824	-0.038281	-0.00094
0.4445	0.001907	-0.013351	0.088056	-0.002042	0.003826	0.005007	0.01698	-0.006328
0.445	0.002478	-0.015625	0.053794	-0.000501	0.011671	0.00303	0.026328	-0.00929
0.4455	-9.3e-05	-0.018536	0.034468	0.002307	0.011653	0.001169	0.007003	-0.006767
0.446	-0.001932	-0.01452	0.01415	0.003578	0.002285	0.001689	-0.008513	-0.001745
0.4465	-0.002185	-0.003787	-0.023964	0.001893	-0.00878	0.001993	-0.012745	0.001317
0.447	-0.001867	0.005184	-0.077711	-0.000135	-0.012226	-0.000737	-0.015351	0.001825
0.4475	-0.001091	0.006718	-0.123538	-0.001386	-0.005694	-0.004036	-0.019334	0.000984
0.448	-0.001023	0.003537	-0.137157	-0.002396	0.005532	-0.004533	-0.019174	-9.4e-05
0.4485	-0.002397	0.001233	-0.114244	-0.003178	0.015006	-0.003147	-0.012671	-0.000554
0.449	-0.003045	0.001882	-0.068012	-0.005801	0.020663	-0.00182	-0.005022	-0.001365
0.4495	-0.002436	0.003313	-0.017517	-0.010606	0.023933	-0.001273	-0.003161	-0.002601
0.45	-0.002927	0.003685	0.019554	-0.014139	0.026071	-0.001872	-0.00787	-0.002378
0.4505	-0.004613	0.003829	0.034811	-0.014915	0.028637	-0.0025	-0.013335	-0.001606
0.451	-0.005542	0.004055	0.032887	-0.014285	0.034295	-0.002316	-0.015761	-0.002497
0.4515	-0.005709	0.002332	0.018901	-0.013266	0.042565	-0.002566	-0.017289	-0.003002
0.452	-0.006203	-0.002097	-0.015594	-0.013112	0.049631	-0.003372	-0.020907	-0.000491
0.4525	-0.006554	-0.005147	-0.073559	-0.01559	0.054328	-0.00339	-0.027256	0.003473
0.453	-0.005591	-0.002258	-0.120263	-0.018378	0.057809	-0.002041	-0.036492	0.006915
0.4535	-0.003131	0.005626	-0.106984	-0.016636	0.059549	0.000484	-0.048447	0.009115
0.454	-0.000431	0.013575	-0.034479	-0.011066	0.054328	0.003108	-0.05873	0.009717
0.4545	0.000235	0.017037	0.045878	-0.006079	0.027383	0.004482	-0.05829	0.010306
0.455	-0.001082	0.014479	0.099451	-0.002484	-0.034617	0.003576	-0.043057	0.012066
0.4555	-0.001035	0.00818	0.134203	0.002291	-0.113187	0.000292	-0.022978	0.013119
0.456	0.00226	0.002889	0.153357	0.009422	-0.155941	-0.003085	-0.011358	0.011746
0.4565	0.007131	0.001866	0.130092	0.016118	-0.129294	-0.004368	-0.006805	0.009443
0.457	0.010205	0.003389	0.053371	0.017508	-0.061288	-0.003666	-0.002136	0.008392
0.4575	0.009499	0.002866	-0.033789	0.012337	-0.008884	-0.001756	-0.007205	0.007905
0.458	0.007052	-0.002172	-0.071754	0.004993	0.003079	-0.000259	-0.03623	0.006687
0.4585	0.005668	-0.009661	-0.04861	-0.001839	-0.009657	-0.00021	-0.072248	0.006062
0.459	0.004873	-0.014365	-0.009003	-0.010633	-0.024548	-0.000169	-0.076571	0.007769
0.4595	0.003179	-0.012504	0.000221	-0.021944	-0.031499	0.000649	-0.03978	0.010562
0.46	0.000916	-0.005309	-0.023221	-0.03136	-0.028452	0.001224	0.005337	0.010819
0.4605	-0.001007	0.002046	-0.051487	-0.034191	-0.017707	0.001231	0.028178	0.007234
0.461	-0.002616	0.005414	-0.065723	-0.029829	-0.006372	0.001126	0.032252	0.002891
0.4615	-0.003526	0.006367	-0.065498	-0.020894	-0.000432	0.000605	0.034494	0.001394
0.462	-0.002687	0.008565	-0.055283	-0.008867	0.000523	-0.000496	0.037957	0.004088
0.4625	-1.8e-05	0.011178	-0.038673	0.006048	-0.000724	-0.001083	0.037119	0.00918
0.463	0.003771	0.010945	-0.022245	0.022529	-0.003149	-0.000744	0.030962	0.012236
0.4635	0.006692	0.006517	-0.013287	0.038539	-0.005794	-0.000686	0.022069	0.010962
0.464	0.006199	-0.001568	-0.012374	0.05198	-0.006094	-0.001167	0.013457	0.007406
0.4645	0.003068	-0.011025	-0.014255	0.060512	-0.002817	-0.000443	0.008286	0.00456
0.465	0.000254	-0.01673	-0.015717	0.062776	0.0011	0.001424	0.007544	0.00375
0.4655	-0.001553	-0.014129	-0.017515	0.060339	0.002672	0.001267	0.008849	0.004806
0.466	-0.003005	-0.005321	-0.018674	0.054992	0.003475	-0.001521	0.009218	0.00587
0.4665	-0.003631	0.003591	-0.015828	0.045519	0.005724	-0.003937	0.007699	0.004078
0.467	-0.002724	0.009623	-0.009773	0.030984	0.007579	-0.004531	0.005249	-0.000908
0.4675	-0.000545	0.012875	-0.005182	0.01377	0.006656	-0.003547	0.003139	-0.007087
0.468	0.001089	0.012966	-0.004045	-0.001099	0.003281	-0.001231	0.002319	-0.013283
0.4685	0.00032	0.009908	-0.004497	-0.009144	-0.000937	0.000979	0.003544	-0.018822
0.469	-0.001443	0.006927	-0.004272	-0.010653	-0.00351	0.001415	0.006156	-0.023099
0.4695	-0.001581	0.007389	-0.003394	-0.009719	-0.003518	0.000493	0.008316	-0.027071
0.47	-0.000332	0.009892	-0.003438	-0.009394	-0.003653	-4.5e-05	0.009195	-0.032417
0.4705	0.000491	0.009269	-0.004207	-0.009316	-0.005514	0.000301	0.008947	-0.038143
0.471	0.00035	0.001461	-0.003974	-0.00879	-0.006322	0.000582	0.008178	-0.041508
0.4715	0.000504	-0.012093	-0.003064	-0.009115	-0.001061	-0.00023	0.007924	-0.041579
0.472	0.001689	-0.02541	-0.00318	-0.009626	0.012967	-0.002212	0.008013	-0.039264
0.4725	0.002673	-0.034144	-0.004462	-0.008453	0.031163	-0.003609	0.007287	-0.036964
0.473	0.002034	-0.039209	-0.005864	-0.00653	0.042918	-0.003246	0.006347	-0.035031
0.4735	-0.000383	-0.042815	-0.005867	-0.005059	0.041145	-0.002424	0.006103	-0.029614
0.474	-0.002889	-0.043183	-0.002921	-0.004465	0.029487	-0.002118	0.00432	-0.020433
0.4745	-0.003083	-0.038712	0.001888	-0.004725	0.017329	-0.002404	-0.000487	-0.012641
0.475	-0.001084	-0.033887	0.004887	-0.004171	0.009867	-0.002843	-0.004474	-0.008356
0.4755	0.000103	-0.032327	0.005038	-0.002113	0.006443	-0.002143	-0.003882	-0.005334
0.476	-0.001276	-0.025753	0.006343	-0.001059	0.005108	-0.000822	7e-05	-0.00313
0.4765	-0.003744	0.00101	0.014197	-0.003312	0.004426	-0.00081	0.004573	-0.002783
0.477	-0.00546	0.048814	0.029621	-0.007107	0.003744	-0.00205	0.007118	-0.002004
0.4775	-0.005746	0.094443	0.045833	-0.0095	0.004056	-0.002536	0.006243	0.001907
0.478	-0.004535	0.109007	0.051422	-0.009713	0.005198	-0.001161	0.003832	0.008832
0.4785	-0.00225	0.083832	0.038758	-0.008075	0.004887	0.000687	0.002172	0.01734
0.479	0.000161	0.037558	0.011961	-0.006519	0.002686	0.001246	0.001055	0.023999
0.4795	0.000638	-0.000825	-0.014081	-0.006617	0.00029	0.00092	0.000367	0.025956
0.48	-0.001775	-0.017259	-0.027667	-0.006027	-0.001162	0.001865	0.000654	0.024779
0.4805	-0.004012	-0.02039	-0.031705	-0.003106	-0.001623	0.004752	0.001073	0.022999
0.481	-0.002955	-0.023547	-0.036137	-0.001311	-0.001284	0.007273	0.000788	0.019709
0.4815	4.1e-05	-0.028299	-0.040973	-0.00292	0.000238	0.007303	0.001223	0.013725
0.482	0.001606	-0.031121	-0.032785	-0.004661	0.004188	0.004899	0.003287	0.008411
0.4825	0.000501	-0.034401	-0.000149	-0.004466	0.011265	0.00148	0.005009	0.008079
0.483	-0.001346	-0.042451	0.050703	-0.004012	0.01885	-0.001211	0.004863	0.013283
0.4835	-0.00179	-0.052194	0.098671	-0.003677	0.021674	-0.001766	0.003522	0.021116
0.484	-0.001385	-0.056067	0.124574	-0.003113	0.016916	0.000377	0.002164	0.026388
0.4845	-0.001682	-0.050927	0.121539	-0.003098	0.007599	0.003224	0.001736	0.026505
0.485	-0.002773	-0.037519	0.08883	-0.003176	0.000289	0.003776	0.002447	0.025302
0.4855	-0.003649	-0.019623	0.026252	-0.002196	-0.001485	0.001982	0.003621	0.027812
0.486	-0.003657	-0.006683	-0.052038	-0.000242	-0.000747	-0.000289	0.004512	0.033907
0.4865	-0.003528	-0.004663	-0.108909	0.002267	-0.001662	-0.001577	0.00484	0.039545
0.487	-0.003951	-0.003564	-0.11844	0.003892	-0.003825	-0.001531	0.004433	0.041652
0.4875	-0.003366	0.013049	-0.106125	0.003016	-0.005093	-0.000851	0.003236	0.039747
0.488	-0.000973	0.0452	-0.119196	0.00154	-0.006296	0.000166	0.002057	0.034625
0.4885	0.000904	0.074406	-0.158431	0.001401	-0.009251	0.001266	0.002023	0.027995
0.489	0.001164	0.085424	-0.180623	0.000918	-0.01258	0.001517	0.003139	0.023649
0.4895	0.001575	0.080554	-0.168058	-0.001474	-0.013556	0.000158	0.004385	0.023638
0.49	0.003545	0.070286	-0.15232	-0.006269	-0.012404	-0.002116	0.004552	0.020778
0.4905	0.006487	0.05858	-0.158121	-0.012837	-0.012016	-0.003048	0.002678	0.005808
0.491	0.008198	0.044456	-0.155471	-0.017661	-0.013443	-0.002237	-0.000684	-0.017707
0.4915	0.007228	0.031285	-0.09071	-0.017803	-0.013952	-0.000719	-0.003413	-0.037685
0.492	0.004814	0.023291	0.050846	-0.013871	-0.012206	0.001823	-0.003068	-0.046212
0.4925	0.003119	0.018638	0.234557	-0.008149	-0.011295	0.004336	0.000874	-0.042042
0.493	0.003177	0.01427	0.406682	-0.002721	-0.012863	0.004658	0.003299	-0.030734
0.4935	0.004731	0.010259	0.505345	0.001069	-0.014634	0.003053	-0.002972	-0.022386
0.494	0.0063	0.006822	0.470065	0.002478	-0.015852	0.001025	-0.017896	-0.022179
0.4945	0.006251	0.002831	0.292932	0.002027	-0.017855	-0.000575	-0.033617	-0.025724
0.495	0.004163	-0.002804	0.061466	0.000803	-0.019697	-0.000644	-0.043158	-0.026816
0.4955	0.000359	-0.009638	-0.094827	-0.000346	-0.01916	0.000997	-0.047754	-0.024633
0.496	-0.003401	-0.014949	-0.120122	-3.3e-05	-0.016258	0.002021	-0.054608	-0.021128
0.4965	-0.003753	-0.015813	-0.067216	0.001478	-0.012838	0.001255	-0.068012	-0.015807
0.497	-0.000395	-0.013243	-0.015873	0.002685	-0.010519	-0.00033	-0.085948	-0.006556
0.4975	0.002529	-0.011697	0.004069	0.00367	-0.007828	-0.002029	-0.102611	0.004471
0.498	0.002392	-0.013095	0.006396	0.003768	0.000297	-0.002681	-0.10174	0.011487
0.4985	0.001159	-0.014141	0.006657	0.001983	0.013712	-0.002015	-0.051424	0.012287
0.499	0.001421	-0.012088	0.00575	0.000975	0.019035	-0.001267	0.060273	0.009792
0.4995	0.002682	-0.011592	0.000388	0.002669	0.002437	-0.000355	0.179951	0.006902
0.5	0.003213	-0.020851	-0.007205	0.003557	-0.027938	0.001028	0.224819	0.002754
0.5005	0.002968	-0.040821	-0.012066	0.002464	-0.045937	0.001811	0.174826	-0.002315
0.501	0.0026	-0.060218	-0.011104	0.002706	-0.037757	0.002222	0.089655	-0.003702
0.5015	0.002161	-0.061726	-0.003814	0.004061	-0.017033	0.003641	0.029488	-0.000149
0.502	0.001753	-0.037503	0.005787	0.004926	-0.00276	0.00519	-0.001756	0.004909
0.5025	0.00187	0.00032	0.009998	0.005499	0.007852	0.005206	-0.027964	0.008535
0.503	0.002538	0.027303	0.004683	0.005234	0.028897	0.003931	-0.056941	0.00939
0.5035	0.002626	0.026502	-0.006537	0.004237	0.054686	0.001714	-0.086428	0.008315
0.504	0.001564	0.002506	-0.016624	0.002567	0.062512	-0.001132	-0.126879	0.006704
0.5045	0.000181	-0.025017	-0.022196	0.000314	0.047153	-0.002308	-0.188725	0.005084
0.505	-0.001025	-0.04001	-0.025984	-0.00032	0.029762	-0.000522	-0.247852	0.004422
0.5055	-0.002246	-0.03867	-0.03176	0.001286	0.028579	0.001282	-0.239796	0.005591
0.506	-0.003708	-0.023932	-0.037566	0.002711	0.039409	0.000986	-0.118829	0.008092
0.5065	-0.005079	-0.000176	-0.037239	0.002131	0.047865	0.000992	0.057759	0.009017
0.507	-0.005494	0.026035	-0.02872	0.000906	0.046885	0.002235	0.153715	0.00482
0.5075	-0.004356	0.047947	-0.019022	0.001328	0.038261	0.002291	0.116098	-0.005771
0.507999999999999	-0.001745	0.062277	-0.020185	0.002185	0.026342	0.001446	0.059614	-0.020924
0.508499999999999	0.001034	0.067902	-0.036947	0.001977	0.01687	0.001923	0.110719	-0.033848
0.508999999999999	0.002544	0.062803	-0.060532	0.002523	0.015406	0.002604	0.22222	-0.03716
0.509499999999999	0.002862	0.045112	-0.079099	0.003805	0.02142	0.001314	0.243222	-0.033179
0.509999999999999	0.00247	0.018762	-0.087797	0.003353	0.028333	-0.001446	0.13193	-0.031008
0.510499999999999	0.001327	-0.006734	-0.085553	0.002066	0.02984	-0.004377	-0.007081	-0.032889
0.510999999999999	1e-06	-0.023921	-0.071442	0.002056	0.025238	-0.006824	-0.074425	-0.033914
0.511499999999999	-0.000373	-0.028815	-0.049074	0.002014	0.019748	-0.007974	-0.067135	-0.032594
0.511999999999999	-0.00029	-0.019192	-0.027202	0.001104	0.018017	-0.00785	-0.022809	-0.030649
0.512499999999999	-0.00141	0.001534	-0.011079	0.001487	0.01884	-0.007091	0.042768	-0.027131
0.512999999999999	-0.003693	0.022973	0.000499	0.003563	0.016021	-0.005018	0.116681	-0.021035
0.513499999999999	-0.005362	0.033766	0.008493	0.004449	0.002972	-0.001658	0.159998	-0.014307
0.513999999999999	-0.005084	0.030188	0.011775	0.002393	-0.0185	0.000543	0.13785	-0.00936
0.514499999999999	-0.003872	0.018993	0.012457	-0.00051	-0.035872	0.000181	0.064359	-0.00695
0.514999999999999	-0.003375	0.010049	0.017862	-0.001545	-0.040012	-0.00104	-0.006786	-0.005263
0.515499999999999	-0.002997	0.007718	0.032606	-0.001804	-0.040873	-0.000877	-0.036396	-0.000885
0.515999999999999	-0.00233	0.009431	0.048458	-0.002688	-0.062352	0.000421	-0.032084	0.00697
0.516499999999999	-0.001902	0.011377	0.048427	-0.002091	-0.113406	0.000343	-0.024796	0.013968
0.516999999999998	-0.000744	0.013473	0.023927	0.000219	-0.166388	-0.002181	-0.029051	0.015363
0.517499999999998	0.001081	0.015993	-0.013786	0.001299	-0.176479	-0.00469	-0.037597	0.012458
0.517999999999998	0.001336	0.01633	-0.041581	0.000718	-0.125762	-0.00462	-0.041312	0.009875
0.518499999999998	-0.000542	0.013077	-0.045628	0.000338	-0.043216	-0.00265	-0.038613	0.008507
0.518999999999998	-0.002447	0.007956	-0.031691	0.000767	0.019562	-0.00069	-0.032024	0.006351
0.519499999999998	-0.002409	0.002696	-0.01437	0.001442	0.031858	0.000241	-0.025483	0.003768
0.519999999999998	-0.001009	-0.00133	-0.002759	0.001401	0.006492	-0.000142	-0.022266	0.001941
0.520499999999998	-0.000686	-0.00368	0.00298	0.000395	-0.017238	-0.001007	-0.023123	-0.000129
0.520999999999998	-0.00229	-0.008968	0.007683	-0.000238	-0.011931	-0.000955	-0.026546	-0.001381
0.521499999999998	-0.003565	-0.024772	0.014829	-0.000244	0.017384	0.000246	-0.029247	0.001167
0.521999999999998	-0.002744	-0.05312	0.022384	-0.00106	0.048251	0.00106	-0.028636	0.006039
0.522499999999998	-0.000996	-0.087861	0.02598	-0.002361	0.06639	0.000509	-0.025744	0.00885
0.522999999999998	0.00034	-0.120367	0.02429	-0.001887	0.070885	-0.000209	-0.022372	0.009246
0.523499999999998	0.001432	-0.14607	0.019953	-0.00034	0.065369	3.1e-05	-0.018263	0.009689
0.523999999999998	0.001882	-0.167886	0.016343	-0.001364	0.055905	0.000994	-0.014086	0.009515
0.524499999999998	0.000234	-0.194605	0.014014	-0.004048	0.050589	0.001336	-0.011735	0.007361
0.524999999999998	-0.002273	-0.230136	0.011697	-0.004953	0.053072	-7.9e-05	-0.010722	0.003869
0.525499999999998	-0.002063	-0.263215	0.009515	-0.004994	0.060303	-0.0018	-0.009488	-0.000622
0.525999999999997	0.000527	-0.272754	0.008852	-0.005508	0.06778	-0.00153	-0.008132	-0.005075
0.526499999999997	0.002103	-0.243437	0.009493	-0.00605	0.071739	0.000437	-0.006346	-0.008863
0.526999999999997	0.002152	-0.177493	0.008303	-0.006356	0.066115	0.001846	-0.003427	-0.011496
0.527499999999997	0.002219	-0.08992	0.00256	-0.004932	0.045949	0.00108	-0.001388	-0.008883
0.527999999999997	0.002187	0.01306	-0.005197	-0.001536	0.016953	-0.001381	-0.002671	0.000184
0.528499999999997	0.000441	0.13999	-0.008796	0.000771	-0.006888	-0.003154	-0.006307	0.008913
0.528999999999997	-0.003158	0.28035	-0.005592	0.000907	-0.018656	-0.002657	-0.009546	0.011448
0.529499999999997	-0.005938	0.375858	0.001301	0.001126	-0.025335	-0.000989	-0.010797	0.009156
0.529999999999997	-0.005358	0.364994	0.00713	0.001561	-0.036472	0.000633	-0.009729	0.005556
0.530499999999997	-0.002474	0.261727	0.008942	0.001075	-0.053275	0.001712	-0.006366	0.003513
0.530999999999997	-0.000361	0.149119	0.006058	0.000812	-0.071376	0.001553	-0.002317	0.006812
0.531499999999997	-5e-06	0.086905	-4.2e-05	0.000547	-0.080837	0.000582	-0.000912	0.015376
0.531999999999997	-9e-06	0.063456	-0.005661	-0.00138	-0.066946	-0.001139	-0.002082	0.023933
0.532499999999997	0.00113	0.043574	-0.007607	-0.003179	-0.030618	-0.003067	-0.001504	0.028299
0.532999999999997	0.003404	0.020919	-0.006699	-0.001677	-0.000165	-0.002333	0.002646	0.026923
0.533499999999997	0.00508	0.006036	-0.006513	0.002083	-0.002821	0.000167	0.008353	0.022044
0.533999999999997	0.004948	-0.00511	-0.00882	0.004224	-0.029012	0.000194	0.012684	0.020675
0.534499999999997	0.003887	-0.025143	-0.011156	0.003789	-0.043574	-0.001459	0.013156	0.026614
0.534999999999996	0.003327	-0.049047	-0.009834	0.002307	-0.032213	-0.001049	0.010647	0.034284
0.535499999999996	0.003158	-0.052072	-0.004468	0.001677	-0.015753	0.001415	0.008413	0.036367
0.535999999999996	0.002398	-0.015514	0.002306	0.002723	-0.013579	0.003884	0.008192	0.032563
0.536499999999996	0.00204	0.049932	0.008339	0.002403	-0.016258	0.00563	0.010158	0.026335
0.536999999999996	0.004209	0.106098	0.01355	-0.00053	-0.008303	0.006279	0.013205	0.019453
0.537499999999996	0.007644	0.116901	0.018162	-0.002452	0.004232	0.005423	0.014806	0.011937
0.537999999999996	0.007635	0.081379	0.020834	-0.001935	0.007533	0.004024	0.01184	0.003774
0.538499999999996	0.002674	0.031773	0.019882	-0.000433	0.001846	0.004179	0.002763	-0.003904
0.538999999999996	-0.002504	-0.002369	0.015563	0.000527	-0.003855	0.006358	-0.009982	-0.010951
0.539499999999996	-0.003663	-0.018048	0.009969	0.00013	-0.005179	0.008173	-0.021959	-0.018961
0.539999999999996	-0.001403	-0.025567	0.005633	-0.000146	-0.003889	0.007736	-0.030811	-0.027509
0.540499999999996	0.002259	-0.026664	0.004076	0.001519	-0.002324	0.006	-0.037154	-0.033603
0.540999999999996	0.005216	-0.015152	0.004146	0.003827	-0.000419	0.004255	-0.043382	-0.035122
0.541499999999996	0.004916	0.011169	0.003641	0.004124	0.00187	0.001925	-0.051842	-0.032781
0.541999999999996	0.001283	0.047934	0.002526	0.002852	0.003677	-0.001347	-0.061622	-0.029517
0.542499999999996	-0.00184	0.087461	0.001703	0.001811	0.005541	-0.003182	-0.066063	-0.027645
0.542999999999996	-0.00149	0.115646	0.000904	0.001737	0.007379	-0.001413	-0.054133	-0.024743
0.543499999999996	0.000738	0.112113	6.7e-05	0.002979	0.007517	0.002204	-0.016294	-0.016296
0.543999999999995	0.0022	0.071648	1.7e-05	0.003568	0.007121	0.004954	0.043564	-0.003162
0.544499999999995	0.001682	0.021306	0.000443	0.002257	0.007654	0.005997	0.099689	0.011794
0.544999999999995	-0.000899	-0.002727	-7.7e-05	0.002052	0.006903	0.005108	0.119377	0.027827
0.545499999999995	-0.003503	0.007534	-0.001043	0.003764	0.004316	0.003185	0.092951	0.03974
0.545999999999995	-0.003577	0.028176	-0.000659	0.00386	0.002543	0.001698	0.044146	0.039665
0.546499999999995	-0.000968	0.032294	0.000125	0.002206	0.00343	0.000106	0.007163	0.026735
0.546999999999995	0.002347	0.013892	-0.000917	0.001601	0.007244	-0.002366	-0.004541	0.007744
0.547499999999995	0.004022	-0.01454	-0.003382	0.000607	0.012123	-0.004181	-0.002462	-0.007417
0.547999999999995	0.002815	-0.037702	-0.005133	-0.001502	0.01489	-0.004263	-0.001557	-0.012129
0.548499999999995	0.000272	-0.048093	-0.004802	-0.001101	0.014339	-0.004633	-0.005322	-0.01051
0.548999999999995	-0.00031	-0.047639	-0.003279	0.000784	0.012919	-0.007142	-0.008917	-0.013539
0.549499999999995	0.000721	-0.043651	-0.002038	-0.00024	0.014127	-0.010289	-0.006331	-0.023992
0.549999999999995	-4.4e-05	-0.042485	-2.4e-05	-0.003263	0.017482	-0.01142	0.005106	-0.032778
0.550499999999995	-0.002524	-0.04532	0.003115	-0.004774	0.018475	-0.009519	0.020799	-0.030343
0.550999999999995	-0.004607	-0.049938	0.003791	-0.00396	0.014639	-0.005878	0.030315	-0.01513
0.551499999999995	-0.005994	-0.054483	-0.000129	-0.002083	0.00926	-0.002794	0.024675	0.004839
0.551999999999995	-0.006281	-0.058174	-0.00601	-0.00051	0.005851	-0.0008	7.9e-05	0.017639
0.552499999999995	-0.004579	-0.061228	-0.009808	-0.001263	0.002903	0.001576	-0.040867	0.018874
0.552999999999994	-0.001531	-0.065467	-0.009658	-0.004852	-0.001826	0.005027	-0.086254	0.015206
0.553499999999994	0.000704	-0.073497	-0.007392	-0.007225	-0.007357	0.007997	-0.119193	0.015605
0.553999999999994	0.000146	-0.086055	-0.00507	-0.005692	-0.011528	0.00782	-0.129994	0.021803
0.554499999999994	-0.003558	-0.099822	-0.002551	-0.002793	-0.013579	0.003372	-0.123106	0.028595
0.554999999999994	-0.007971	-0.107941	-0.001038	-0.001572	-0.013868	-0.001968	-0.11279	0.031325
0.555499999999994	-0.009483	-0.104177	-0.002891	-0.002205	-0.012438	-0.003862	-0.11319	0.031729
0.555999999999994	-0.007792	-0.087886	-0.006841	-0.002448	-0.009739	-0.003368	-0.129588	0.03481
0.556499999999994	-0.005488	-0.066583	-0.008146	-0.001283	-0.00738	-0.003342	-0.155757	0.040475
0.556999999999994	-0.004351	-0.052436	-0.003778	-0.000148	-0.006552	-0.003622	-0.181445	0.04369
0.557499999999994	-0.00467	-0.050147	0.004316	0.000102	-0.005576	-0.003024	-0.193317	0.040174
0.557999999999994	-0.004991	-0.050534	0.010744	-2.2e-05	-0.00092	-0.001099	-0.159451	0.03004
0.558499999999994	-0.003416	-0.04245	0.011317	-4.8e-05	0.007199	0.000554	-0.042719	0.019364
0.558999999999994	-0.000917	-0.024629	0.006398	-2e-06	0.013325	-0.000933	0.134946	0.014023
0.559499999999994	9.8e-05	0.000536	0.000215	-6.5e-05	0.013234	-0.005076	0.262416	0.012454
0.559999999999994	-0.000257	0.034119	-0.002827	-0.001226	0.009068	-0.008076	0.232722	0.008513
0.560499999999994	-4.9e-05	0.070099	-0.002746	-0.003475	0.00539	-0.007813	0.079459	-0.000601
0.560999999999994	0.001074	0.088763	-0.003108	-0.003926	0.00328	-0.004663	-0.039256	-0.011307
0.561499999999994	0.001595	0.07802	-0.004878	-0.001494	0.001354	3.3e-05	-0.018344	-0.020072
0.561999999999994	0.000967	0.055304	-0.005484	0.001327	-0.001379	0.003596	0.086959	-0.028102
0.562499999999993	0.000606	0.052079	-0.003496	0.002655	-0.003183	0.004336	0.152489	-0.03646
0.562999999999993	0.0015	0.077079	-0.001034	0.002598	0.001757	0.004175	0.132832	-0.043044
0.563499999999993	0.0025	0.10838	-0.00137	0.002142	0.016091	0.005066	0.088106	-0.044898
0.563999999999993	0.002005	0.124741	-0.005415	0.002158	0.032032	0.006118	0.090707	-0.039742
0.564499999999993	0.000559	0.124888	-0.010128	0.00239	0.038796	0.006847	0.140713	-0.026307
0.564999999999993	0.00015	0.109116	-0.010504	0.00165	0.034796	0.007691	0.18261	-0.005725
0.565499999999993	0.001659	0.072252	-0.005416	0.000325	0.027629	0.006918	0.180479	0.0164
0.565999999999993	0.004128	0.026348	0.000986	0.000105	0.023638	0.003761	0.146631	0.030495
0.566499999999993	0.006067	-0.000882	0.004521	0.000688	0.02108	0.001231	0.106687	0.029134
0.566999999999993	0.007125	-0.001457	0.004339	0.000716	0.014937	0.000774	0.068475	0.015327
0.567499999999993	0.007683	0.003877	0.002115	-0.000331	0.005283	0.000505	0.031671	-0.000787
0.567999999999993	0.007649	-0.001878	-0.000482	-0.001676	-0.00337	-0.000798	0.011213	-0.013747
0.568499999999993	0.006873	-0.014092	-0.002804	-0.00196	-0.008999	-0.003098	0.030487	-0.023711
0.568999999999993	0.005709	-0.025473	-0.004277	-0.001551	-0.013596	-0.00572	0.08287	-0.030642
0.569499999999993	0.004923	-0.038627	-0.004161	-0.001164	-0.021193	-0.007034	0.120225	-0.034914
0.569999999999993	0.004912	-0.054521	-0.00251	-0.00074	-0.037477	-0.006268	0.103095	-0.037903
0.570499999999993	0.004923	-0.066039	-0.001211	-0.000226	-0.063436	-0.005142	0.050372	-0.037336
0.570999999999993	0.004505	-0.063994	-0.001336	0.000739	-0.085226	-0.005285	0.012156	-0.028836
0.571499999999992	0.00414	-0.042578	-0.000443	0.001306	-0.080669	-0.00593	0.002886	-0.013186
0.571999999999992	0.002781	-0.005467	0.004009	0.000637	-0.045202	-0.005853	-0.0068	0.004647
0.572499999999992	-0.000552	0.030227	0.011283	8.3e-05	-0.002973	-0.004631	-0.037384	0.020234
0.572999999999992	-0.003617	0.043692	0.018063	0.000454	0.01792	-0.002419	-0.072282	0.030979
0.573499999999992	-0.004643	0.029227	0.021	0.001208	0.014328	-0.000131	-0.086151	0.036961
0.573999999999992	-0.004903	0.000347	0.019257	0.001935	0.004916	0.000996	-0.076652	0.038609
0.574499999999992	-0.005234	-0.030155	0.014521	0.001861	0.003819	0.000973	-0.060097	0.033261
0.574999999999992	-0.003499	-0.064339	0.009432	0.000816	0.007826	0.001404	-0.051236	0.017634
0.575499999999992	0.002279	-0.104362	0.006256	0.000243	0.00938	0.002603	-0.051363	-0.006343
0.575999999999992	0.008483	-0.133	0.005667	0.001017	0.009237	0.003427	-0.048245	-0.031268
0.576499999999992	0.00917	-0.121893	0.006086	0.002136	0.011547	0.00339	-0.028969	-0.051882
0.576999999999992	0.004699	-0.061239	0.005438	0.002056	0.015414	0.002579	0.002685	-0.068557
0.577499999999992	0.000781	0.02778	0.003815	0.000274	0.01684	0.001595	0.025665	-0.080883
0.577999999999992	0.000679	0.114299	0.002444	-0.002	0.015647	0.000901	0.023533	-0.085057
0.578499999999992	0.002664	0.178632	0.001718	-0.002963	0.014896	0.001365	0.001232	-0.080693
0.578999999999992	0.004317	0.205452	0.001263	-0.002108	0.014378	0.003599	-0.026189	-0.07368
0.579499999999992	0.005719	0.178486	0.000707	-0.000378	0.010527	0.004595	-0.051148	-0.06826
0.579999999999992	0.007395	0.103778	0.000618	0.001087	0.001967	0.002111	-0.069976	-0.061231
0.580499999999991	0.00857	0.020919	0.001284	0.002075	-0.008157	-0.000129	-0.075512	-0.04777
0.580999999999991	0.007857	-0.033496	0.001679	0.003513	-0.01473	0.001106	-0.06623	-0.029098
0.581499999999991	0.004418	-0.061337	0.000894	0.005014	-0.015183	0.003387	-0.052772	-0.01256
0.581999999999991	-0.001189	-0.087248	-0.001041	0.003874	-0.011126	0.003318	-0.047052	-0.00386
0.582499999999991	-0.007787	-0.122343	-0.00334	0.000641	-0.005831	0.000304	-0.050994	-6.2e-05
0.582999999999991	-0.013878	-0.155847	-0.005611	0.000156	-0.001221	-0.003883	-0.059658	0.004692
0.583499999999991	-0.018071	-0.172928	-0.007698	0.002634	0.003047	-0.006285	-0.069001	0.009953
0.583999999999991	-0.020547	-0.170043	-0.008157	0.002732	0.007737	-0.005722	-0.075052	0.012286
0.584499999999991	-0.021088	-0.152431	-0.0064	-3.2e-05	0.012639	-0.004479	-0.071928	0.013143
0.584999999999991	-0.017872	-0.118862	-0.004454	-0.000785	0.01845	-0.004271	-0.058961	0.016241
0.585499999999991	-0.011432	-0.060146	-0.004101	0.001335	0.026232	-0.00294	-0.044552	0.021078
0.585999999999991	-0.00537	0.015554	-0.00498	0.002946	0.033757	0.001506	-0.036931	0.025364
0.586499999999991	-0.002241	0.071276	-0.006219	0.002172	0.035857	0.007383	-0.038254	0.027974
0.586999999999991	-0.001914	0.075848	-0.0083	0.000273	0.029544	0.011482	-0.051881	0.027169
0.587499999999991	-0.003035	0.040772	-0.011159	-0.000921	0.019038	0.01206	-0.081783	0.023208
0.587999999999991	-0.004777	0.005709	-0.011966	-0.001766	0.011698	0.009515	-0.109119	0.020108
0.588499999999991	-0.006396	-0.003728	-0.00897	-0.002688	0.008478	0.005513	-0.086185	0.020798
0.588999999999991	-0.006053	0.009881	-0.005061	-0.002364	0.005049	0.002238	0.008399	0.026419
0.58949999999999	-0.003039	0.032841	-0.003839	-0.00045	-6.4e-05	0.000579	0.116014	0.037872
0.58999999999999	0.000744	0.054994	-0.004559	0.000389	-0.00355	-3e-05	0.148374	0.050374
0.59049999999999	0.003323	0.06945	-0.004038	-0.001393	-0.003337	-0.000203	0.09286	0.054917
0.59099999999999	0.004652	0.075281	-0.001782	-0.002924	-0.004167	-0.001017	0.021107	0.049255
0.59149999999999	0.005591	0.081458	0.000325	-0.003083	-0.012607	-0.002265	-0.005687	0.038251
0.59199999999999	0.005984	0.089831	0.00168	-0.004133	-0.028012	-0.002381	0.005384	0.027275
0.59249999999999	0.005243	0.083634	0.002637	-0.005059	-0.042091	-0.001876	0.014924	0.019748
0.59299999999999	0.003954	0.052468	0.002308	-0.002466	-0.045888	-0.001528	0.005466	0.014844
0.59349999999999	0.003532	0.012492	0.000145	0.002495	-0.038477	0.000152	-0.012617	0.008667
0.59399999999999	0.004411	-0.015537	-0.002231	0.004848	-0.028956	0.003368	-0.027069	0.000663
0.59449999999999	0.004911	-0.03189	-0.003372	0.003417	-0.025328	0.005334	-0.035741	-0.005328
0.59499999999999	0.003074	-0.046371	-0.003844	0.001174	-0.025613	0.004591	-0.040269	-0.007795
0.59549999999999	-0.001048	-0.059983	-0.004984	0.000507	-0.02504	0.00235	-0.041109	-0.008929
0.59599999999999	-0.005219	-0.072433	-0.006649	0.002217	-0.023101	-0.000747	-0.036911	-0.009235
0.59649999999999	-0.006604	-0.08975	-0.006637	0.004501	-0.018001	-0.003811	-0.026435	-0.007561
0.59699999999999	-0.004837	-0.112747	-0.004433	0.004574	-0.004365	-0.004602	-0.011645	-0.003991
0.59749999999999	-0.002227	-0.126427	-0.001813	0.002715	0.017196	-0.003265	0.003918	0.000123
0.59799999999999	-0.000224	-0.110585	0.001331	0.001011	0.034108	-0.002451	0.020322	0.003162
0.598499999999989	0.001269	-0.059554	0.005444	-1e-05	0.031704	-0.003044	0.039325	0.005193
0.598999999999989	0.001731	0.017784	0.008405	-0.000431	0.011962	-0.00364	0.056373	0.008734
0.599499999999989	0.000993	0.106938	0.00873	-0.000167	-0.002511	-0.003	0.065859	0.016952
0.599999999999989	0.001027	0.179936	0.007426	-0.000667	0.008014	-0.001383	0.07569	0.030602
0.600499999999989	0.003544	0.197613	0.0052	-0.001977	0.034834	-0.000541	0.099294	0.045828
0.600999999999989	0.007695	0.147448	0.001781	-0.001844	0.048171	-0.001876	0.130931	0.054513
0.601499999999989	0.011334	0.067846	-0.002283	-0.001054	0.032317	-0.004106	0.148175	0.04967
0.601999999999989	0.012586	0.01444	-0.005718	-0.001684	0.003694	-0.004538	0.140725	0.03363
0.602499999999989	0.010563	0.011788	-0.007523	-0.002995	-0.012551	-0.002882	0.116832	0.015382
0.602999999999989	0.006373	0.046274	-0.007326	-0.003051	-0.013505	-0.001388	0.080159	0.000722
0.603499999999989	0.002785	0.089263	-0.00555	-0.000705	-0.015243	-0.001021	0.026099	-0.008755
0.603999999999989	0.001233	0.114601	-0.003623	0.001954	-0.02557	-0.000405	-0.032155	-0.011888
0.604499999999989	0.00061	0.107636	-0.002633	0.00191	-0.034219	0.001192	-0.063481	-0.007015
0.604999999999989	-0.000385	0.076328	-0.001754	0.000612	-0.030258	0.002277	-0.056585	0.005195
0.605499999999989	-0.001415	0.0471	0.000386	0.000728	-0.017912	0.000846	-0.033898	0.018491
0.605999999999989	-0.001657	0.036319	0.003602	0.001577	-0.010219	-0.002831	-0.021168	0.024712
0.606499999999989	-0.001948	0.035404	0.005643	0.001564	-0.010289	-0.006093	-0.020367	0.020505
0.606999999999989	-0.00311	0.029826	0.004972	0.000698	-0.007433	-0.006901	-0.018333	0.008465
0.607499999999988	-0.003584	0.017696	0.003098	-0.000217	0.00446	-0.005086	-0.011372	-0.006712
0.607999999999988	-0.002626	0.004841	0.001562	-0.000862	0.016617	-0.002287	-0.007903	-0.021287
0.608499999999988	-0.001959	-0.006753	0.000437	-0.001815	0.020847	-0.001097	-0.011116	-0.032473
0.608999999999988	-0.00144	-0.018105	0.000333	-0.003248	0.023766	-0.001007	-0.014667	-0.038977
0.609499999999988	0.000362	-0.027361	0.001783	-0.003126	0.034462	0.00106	-0.015103	-0.041876
0.609999999999988	0.002058	-0.032841	0.003906	-0.000168	0.045937	0.00464	-0.017021	-0.044561
0.610499999999988	0.002369	-0.036782	0.005296	0.002375	0.043298	0.006739	-0.023424	-0.050088
0.610999999999988	0.002381	-0.042096	0.005448	0.001905	0.026011	0.007841	-0.030232	-0.05422
0.611499999999988	0.002942	-0.050266	0.004909	0.001351	0.008627	0.010502	-0.033612	-0.047761
0.611999999999988	0.003727	-0.061984	0.004066	0.002553	0.001649	0.014173	-0.034234	-0.031104
0.612499999999988	0.003978	-0.076923	0.002456	0.002311	0.002297	0.016205	-0.032502	-0.017376
0.612999999999988	0.003597	-0.093879	2.8e-05	-0.000111	0.002984	0.014962	-0.026843	-0.01624
0.613499999999988	0.002934	-0.107648	-0.001696	-0.001126	0.000907	0.010505	-0.02021	-0.021801
0.613999999999988	0.00205	-0.106627	-0.001012	-0.000391	-0.000764	0.005111	-0.021869	-0.023268
0.614499999999988	0.000688	-0.085503	0.001621	-0.000424	0.001302	0.000742	-0.03349	-0.019297
0.614999999999988	-0.000928	-0.05838	0.003236	-0.00183	0.005325	-0.003416	-0.035769	-0.014879
0.615499999999988	-0.001403	-0.046371	0.001915	-0.003964	0.006252	-0.007997	-0.001487	-0.012049
0.615999999999988	-0.000683	-0.053394	-7.7e-05	-0.004543	0.002017	-0.011721	0.067762	-0.007722
0.616499999999988	-0.0002	-0.061372	0.00067	-0.001963	-0.002495	-0.012812	0.123275	0.000925
0.616999999999987	-3.2e-05	-0.050552	0.004064	0.000312	0.000445	-0.010634	0.111759	0.01133
0.617499999999987	0.000163	-0.019082	0.006316	-0.001666	0.012895	-0.006767	0.040662	0.018685
0.617999999999987	0.000108	0.020815	0.005012	-0.006181	0.027686	-0.003047	-0.027677	0.022344
0.618499999999987	-0.000298	0.056026	0.002297	-0.009238	0.033232	-0.000853	-0.05038	0.024692
0.618999999999987	-0.000923	0.076591	0.000978	-0.010648	0.021422	-0.002156	-0.0441	0.026139
0.619499999999987	-0.001505	0.076774	0.001404	-0.010905	-0.008799	-0.006742	-0.04964	0.027347
0.619999999999987	-0.001336	0.059464	0.001763	-0.008619	-0.047523	-0.011335	-0.080885	0.029962
0.620499999999987	0.000425	0.036905	0.00052	-0.00588	-0.072168	-0.013587	-0.118452	0.032133
0.620999999999987	0.002573	0.021586	-0.001076	-0.005338	-0.064955	-0.012825	-0.141697	0.032625
0.621499999999987	0.002203	0.015622	-0.001884	-0.005457	-0.034296	-0.008925	-0.148429	0.034606
0.621999999999987	-0.001156	0.012938	-0.003055	-0.005517	-0.007459	-0.00469	-0.144503	0.038358
0.622499999999987	-0.005138	0.010471	-0.005027	-0.006043	-0.00437	-0.003839	-0.134924	0.038565
0.622999999999987	-0.007428	0.011463	-0.006527	-0.005392	-0.025543	-0.004966	-0.131505	0.031655
0.623499999999987	-0.007221	0.018389	-0.006862	-0.002707	-0.057422	-0.003648	-0.153242	0.019682
0.623999999999987	-0.005893	0.026246	-0.006229	-0.000282	-0.075946	0.000338	-0.193259	0.006681
0.624499999999987	-0.005151	0.02478	-0.005129	0.000311	-0.055696	0.002435	-0.18348	-0.004618
0.624999999999987	-0.004605	0.010679	-0.005185	0.000777	-0.001655	0.001146	-0.048252	-0.01351
0.625499999999987	-0.00297	-0.006983	-0.006623	0.002842	0.038747	0.001027	0.166207	-0.020377
0.625999999999986	-0.000175	-0.020787	-0.006375	0.005019	0.027551	0.004171	0.280212	-0.024012
0.626499999999986	0.001902	-0.035497	-0.003656	0.004269	-0.011331	0.005903	0.184404	-0.02329
0.626999999999986	0.001435	-0.055679	-0.001891	0.001183	-0.025062	0.002028	0.018542	-0.021632
0.627499999999986	-0.000278	-0.074155	-0.002323	0.000242	-0.004266	-0.004446	0.02801	-0.02425
0.627999999999986	-0.000681	-0.0818	-0.003064	0.002492	0.014976	-0.005928	0.233975	-0.031072
0.628499999999986	-7.5e-05	-0.079402	-0.002696	0.00379	0.012385	0.000915	0.379657	-0.036669
0.628999999999986	-0.000715	-0.074788	1.4e-05	0.002004	0.005962	0.01028	0.259317	-0.036079
0.629499999999986	-0.003363	-0.073985	0.0049	-0.000298	0.013361	0.01239	-0.022214	-0.027973
0.629999999999986	-0.006333	-0.07566	0.008558	-0.00052	0.027032	0.004512	-0.206743	-0.015604
0.630499999999986	-0.006837	-0.07503	0.008338	0.000865	0.033613	-0.005145	-0.200467	-0.005087
0.630999999999986	-0.004032	-0.070843	0.006284	0.002364	0.031992	-0.007931	-0.121671	-7.5e-05
0.631499999999986	-0.000487	-0.058458	0.006075	0.004089	0.027118	-0.004653	-0.094341	-0.000128
0.631999999999986	0.00111	-0.024859	0.008391	0.006468	0.021798	-0.000275	-0.117053	-0.002402
0.632499999999986	0.00108	0.03044	0.010885	0.007947	0.016815	0.004358	-0.118232	-0.003681
0.632999999999986	0.001116	0.074417	0.010271	0.007079	0.012871	0.009646	-0.037138	-0.002923
0.633499999999986	0.001233	0.065313	0.005556	0.00539	0.01059	0.013158	0.151328	0.001348
0.633999999999986	0.000359	0.010042	0.000445	0.004298	0.009038	0.014553	0.400396	0.013383
0.634499999999986	-0.00096	-0.029717	-0.000504	0.003124	0.006937	0.017289	0.564442	0.03421
0.634999999999985	-0.001714	-0.008814	0.002102	0.003167	0.004734	0.02046	0.496735	0.056971
0.635499999999985	-0.001982	0.051228	0.004055	0.006115	0.003508	0.017802	0.216767	0.07035
0.635999999999985	-0.00117	0.100092	0.003948	0.008993	0.004308	0.008161	-0.08349	0.067727
0.636499999999985	0.000165	0.11877	0.003309	0.008155	0.008075	-0.001781	-0.23883	0.052959
0.636999999999985	-0.00036	0.120868	0.002191	0.005501	0.012618	-0.006677	-0.263537	0.03246
0.637499999999985	-0.001906	0.115029	-0.000715	0.005277	0.013292	-0.006671	-0.274446	0.007432
0.637999999999985	-0.001412	0.094782	-0.00506	0.007144	0.009909	-0.003699	-0.319176	-0.019713
0.638499999999985	0.000668	0.061042	-0.008654	0.008262	0.006384	-0.000255	-0.340795	-0.040469
0.638999999999985	0.001343	0.031049	-0.009314	0.007536	0.003985	0.001909	-0.285349	-0.048692
0.639499999999985	-0.000313	0.016988	-0.00694	0.005044	0.001667	0.003087	-0.170577	-0.047034
0.639999999999985	-0.002829	0.011971	-0.003539	0.00362	0.000515	0.003098	-0.044949	-0.039987
0.640499999999985	-0.004423	0.00519	-0.000486	0.005794	0.003393	0.002166	0.059572	-0.028426
0.640999999999985	-0.003837	-0.005494	0.001844	0.008296	0.009847	0.002784	0.1287	-0.014116
0.641499999999985	-0.000872	-0.018848	0.003001	0.007775	0.013033	0.005547	0.164818	-0.001255
0.641999999999985	0.003396	-0.034476	0.003036	0.005949	0.006239	0.007206	0.182265	0.007446
0.642499999999985	0.007187	-0.050598	0.002749	0.004932	-0.006882	0.006314	0.189091	0.012285
0.642999999999985	0.008848	-0.063136	0.002938	0.004508	-0.014714	0.005485	0.196954	0.015323
0.643499999999985	0.007846	-0.069305	0.003437	0.00398	-0.010549	0.006212	0.237194	0.018883
0.643999999999984	0.00564	-0.06918	0.003474	0.002507	0.001883	0.007264	0.316648	0.02427
0.644499999999984	0.004162	-0.059389	0.002167	-4.8e-05	0.013394	0.00681	0.373557	0.030873
0.644999999999984	0.003225	-0.0305	-0.000741	-0.00263	0.01669	0.004061	0.33858	0.03567
0.645499999999984	0.002003	0.018707	-0.003295	-0.005084	0.011283	0.001663	0.228395	0.034592
0.645999999999984	0.001038	0.063767	-0.003091	-0.006671	0.00234	0.002508	0.120133	0.027556
0.646499999999984	0.000334	0.068939	-0.000571	-0.005196	-0.00534	0.003639	0.045969	0.019513
0.646999999999984	-0.000929	0.032442	0.001229	-0.002099	-0.0101	0.001246	-0.022319	0.012893
0.647499999999984	-0.001744	-0.000885	0.000381	-0.002164	-0.011887	-0.003036	-0.093726	0.003424
0.647999999999984	-0.000683	0.007645	-0.001343	-0.00517	-0.012717	-0.009632	-0.133144	-0.012506
0.648499999999984	0.000948	0.042367	-0.001133	-0.005775	-0.015936	-0.023356	-0.120036	-0.031066
0.648999999999984	0.000854	0.059578	0.000664	-0.003012	-0.020669	-0.042781	-0.079479	-0.048031
0.649499999999984	-0.001214	0.045286	0.001002	-0.000455	-0.021707	-0.061119	-0.047083	-0.065716
0.649999999999984	-0.00294	0.0229	-0.0003	-0.00026	-0.017521	-0.076067	-0.034195	-0.086402
0.650499999999984	-0.001549	0.014198	0.000483	-0.002943	-0.013274	-0.085412	-0.032535	-0.107282
0.650999999999984	0.002876	0.015706	0.00337	-0.00638	-0.014492	-0.079239	-0.034675	-0.12317
0.651499999999984	0.006923	0.013317	0.003685	-0.006994	-0.020625	-0.051121	-0.043803	-0.128872
0.651999999999984	0.007003	0.003403	0.000177	-0.005057	-0.02582	-0.011898	-0.06564	-0.121378
0.652499999999984	0.003251	-0.007305	-0.003335	-0.003591	-0.025144	0.019465	-0.091512	-0.100576
0.652999999999983	-0.000633	-0.013412	-0.003744	-0.003688	-0.018074	0.035172	-0.097427	-0.068706
0.653499999999983	-0.002214	-0.015019	-0.00219	-0.004241	-0.00802	0.042719	-0.070487	-0.032945
0.653999999999983	-0.001979	-0.014741	-0.001441	-0.004161	-0.001626	0.051285	-0.030252	-0.005201
0.654499999999983	-0.000606	-0.015495	-0.00189	-0.003314	-0.002738	0.058091	-0.010732	0.007355
0.654999999999983	0.001455	-0.018844	-0.002599	-0.002713	-0.00788	0.052555	-0.025711	0.009409
0.655499999999983	0.00263	-0.023381	-0.003851	-0.003536	-0.01302	0.032166	-0.058948	0.010916
0.655999999999983	0.001692	-0.026801	-0.005642	-0.004905	-0.016787	0.009781	-0.083312	0.017909
0.656499999999983	0.000373	-0.029475	-0.005804	-0.005528	-0.017427	0.003044	-0.085911	0.031604
0.656999999999983	0.001251	-0.033308	-0.002433	-0.005448	-0.014905	0.013715	-0.073956	0.050675
0.657499999999983	0.003328	-0.034741	0.003127	-0.004536	-0.012479	0.02421	-0.060595	0.069565
0.657999999999983	0.003382	-0.024951	0.007419	-0.004036	-0.012846	0.021251	-0.051885	0.078048
0.658499999999983	0.00098	-0.005468	0.007769	-0.005591	-0.014113	0.010521	-0.044771	0.073101
0.658999999999983	-0.000664	0.007243	0.004089	-0.007186	-0.011674	0.003539	-0.034721	0.067262
0.659499999999983	0.000797	0.002701	-0.001046	-0.006693	-0.004538	0.003688	-0.02365	0.072305
0.659999999999983	0.003809	-0.007863	-0.004348	-0.005441	0.003807	0.007327	-0.016643	0.082385
0.660499999999983	0.005631	-0.003878	-0.004096	-0.004299	0.009514	0.009861	-0.016568	0.084323
0.660999999999983	0.005231	0.017552	-0.001422	-0.002705	0.010382	0.009005	-0.025056	0.074157
0.661499999999983	0.003609	0.034347	0.000964	-0.001652	0.007246	0.006137	-0.039633	0.054948
0.661999999999982	0.002926	0.027002	0.001755	-0.001499	0.002673	0.004559	-0.051101	0.02946
0.662499999999982	0.003693	0.003944	0.001134	-0.00071	-0.002102	0.005358	-0.052521	0.000951
0.662999999999982	0.004061	-0.012674	-0.000737	4.3e-05	-0.006195	0.00699	-0.047424	-0.026616
0.663499999999982	0.003049	-0.016628	-0.002651	-0.000727	-0.009982	0.006895	-0.046313	-0.049436
0.663999999999982	0.001513	-0.017265	-0.001931	-0.001195	-0.015063	0.003183	-0.058036	-0.063755
0.664499999999982	0.000231	-0.015745	0.00151	0.000363	-0.019562	-0.001741	-0.083223	-0.069032
0.664999999999982	-0.00128	-0.002269	0.003319	0.001886	-0.020088	-0.002485	-0.110843	-0.068936
0.665499999999982	-0.004347	0.020938	0.000465	0.001746	-0.018028	0.00166	-0.117918	-0.067303
0.665999999999982	-0.007989	0.033807	-0.004526	0.001167	-0.017817	0.005484	-0.082146	-0.064399
0.666499999999982	-0.009111	0.023174	-0.00673	0.000246	-0.019381	0.005811	-0.009021	-0.05575
0.666999999999982	-0.007775	-2e-06	-0.004082	-0.000496	-0.017997	0.005005	0.057806	-0.036179
0.667499999999982	-0.006109	-0.014562	0.000407	0.001385	-0.012299	0.007644	0.071881	-0.008145
0.667999999999982	-0.00426	-0.013895	0.001952	0.00449	-0.006377	0.016244	0.035597	0.016725
0.668499999999982	-0.002264	-0.009506	-0.0013	0.005157	-0.003775	0.026672	-0.001793	0.029216
0.668999999999982	-0.000803	-0.009664	-0.008308	0.00345	-0.004192	0.031438	-0.004431	0.032425
0.669499999999982	0.000141	-0.008089	-0.018227	0.00209	-0.005504	0.028027	0.01622	0.036375
0.669999999999982	0.000654	0.000627	-0.029779	0.002851	-0.005197	0.019792	0.031649	0.046505
0.670499999999982	0.000918	0.009523	-0.03832	0.004556	-0.001561	0.011367	0.032692	0.060291
0.670999999999982	0.001427	0.009197	-0.040601	0.005287	0.003816	0.001596	0.027585	0.073364
0.671499999999981	0.002306	0.000939	-0.041932	0.00522	0.008063	-0.015721	0.023096	0.082611
0.671999999999981	0.002767	-0.005566	-0.049583	0.005131	0.011584	-0.039098	0.020019	0.084146
0.672499999999981	0.00168	-0.005254	-0.060049	0.004936	0.016637	-0.056495	0.019987	0.076255
0.672999999999981	-0.00046	-0.001929	-0.060964	0.004484	0.023102	-0.059036	0.025653	0.062425
0.673499999999981	-0.001997	-0.00044	-0.044855	0.003804	0.029089	-0.04997	0.033153	0.049136
0.673999999999981	-0.00255	-0.000482	-0.015063	0.002489	0.034191	-0.036466	0.033244	0.043212
0.674499999999981	-0.002818	-0.000425	0.021491	0.001265	0.038483	-0.020879	0.022758	0.049083
0.674999999999981	-0.003447	-0.001707	0.060646	0.001616	0.040322	-0.005287	0.007894	0.064691
0.675499999999981	-0.004848	-0.004877	0.09764	0.002371	0.038765	0.004548	-0.002336	0.082501
0.675999999999981	-0.006692	-0.007583	0.121844	0.001949	0.034928	0.004503	-0.002518	0.097976
0.676499999999981	-0.007859	-0.008465	0.120403	0.001158	0.030392	-0.001935	0.005335	0.111902
0.676999999999981	-0.00717	-0.008447	0.089517	0.001016	0.026895	-0.007351	0.013574	0.123805
0.677499999999981	-0.00418	-0.00807	0.038612	0.000768	0.025484	-0.009205	0.016264	0.131934
0.677999999999981	-0.000454	-0.006794	-0.019288	-0.000653	0.025149	-0.010202	0.013625	0.1415
0.678499999999981	0.000995	-0.005304	-0.078428	-0.001532	0.025521	-0.013028	0.008934	0.160633
0.678999999999981	-0.000575	-0.004738	-0.136982	-0.001039	0.029924	-0.016372	0.004927	0.180199
0.679499999999981	-0.002498	-0.004571	-0.185629	-0.001256	0.04072	-0.016711	0.003789	0.174096
0.679999999999981	-0.002838	-0.003289	-0.210824	-0.002019	0.053571	-0.013964	0.007369	0.128729
0.68049999999998	-0.002557	-0.000147	-0.208789	-0.002354	0.060751	-0.010055	0.017184	0.056063
0.68099999999998	-0.002733	0.003389	-0.184421	-0.002239	0.059454	-0.005375	0.031076	-0.023296
0.68149999999998	-0.003385	0.006017	-0.133991	-0.000916	0.055759	0.000219	0.038853	-0.095761
0.68199999999998	-0.003971	0.009576	-0.035965	0.00045	0.057814	0.005564	0.030984	-0.156102
0.68249999999998	-0.003662	0.015377	0.127546	-0.000116	0.064468	0.00734	0.013349	-0.203823
0.68299999999998	-0.003318	0.020308	0.328215	-0.001153	0.067653	0.003614	0.002822	-0.238691
0.68349999999998	-0.003882	0.020723	0.478997	-0.00077	0.06701	-0.002356	0.005677	-0.255587
0.68399999999998	-0.0039	0.017476	0.49096	-0.00019	0.070988	-0.005841	0.004349	-0.245904
0.68449999999998	-0.003167	0.013598	0.357523	0.000258	0.079582	-0.006311	-0.031151	-0.208878
0.68499999999998	-0.003247	0.01006	0.169198	0.001446	0.077996	-0.005924	-0.114746	-0.1617
0.68549999999998	-0.003637	0.006338	0.031006	0.001258	0.055454	-0.005091	-0.223455	-0.129906
0.68599999999998	-0.003281	0.002275	-0.023055	-0.001137	0.021491	-0.003683	-0.299913	-0.121342
0.68649999999998	-0.002355	-0.001323	-0.023792	-0.002798	-0.002046	-0.001989	-0.287168	-0.120799
0.68699999999998	-0.000484	-0.003663	-0.002375	-0.002274	-3.1e-05	0.001576	-0.192479	-0.113542
0.68749999999998	0.002257	-0.004567	0.033139	-0.000366	0.025324	0.007898	-0.115927	-0.09926
0.68799999999998	0.003763	-0.003619	0.06915	0.001714	0.058728	0.014607	-0.164393	-0.084513
0.68849999999998	0.002623	-0.001345	0.075888	0.002142	0.081987	0.019504	-0.296927	-0.073967
0.68899999999998	0.000337	9.4e-05	0.034488	-4.6e-05	0.083338	0.022569	-0.293348	-0.065995
0.689499999999979	-0.001166	-0.00085	-0.041266	-0.002837	0.066533	0.023554	0.027792	-0.053805
0.689999999999979	-0.001613	-0.0034	-0.111958	-0.003278	0.0468	0.020838	0.53622	-0.03576
0.690499999999979	-0.00083	-0.004894	-0.140396	-0.000976	0.027581	0.014258	0.843236	-0.019124
0.690999999999979	0.001637	-0.003846	-0.121254	0.001929	-0.012111	0.006456	0.708928	-0.009186
0.691499999999979	0.004881	-0.00235	-0.083748	0.002999	-0.088931	-0.000759	0.310674	-0.00401
0.691999999999979	0.006982	-0.003021	-0.060341	0.002607	-0.17196	-0.007546	0.010134	-0.001294
0.692499999999979	0.007023	-0.004723	-0.057755	0.002771	-0.195447	-0.012805	-0.053783	-0.000955
0.692999999999979	0.00624	-0.005002	-0.062242	0.002762	-0.139315	-0.015193	-0.011927	-0.000459
0.693499999999979	0.006411	-0.003957	-0.061713	0.001355	-0.073985	-0.016516	0.004195	0.00489
0.693999999999979	0.007459	-0.002915	-0.053204	-0.00028	-0.084176	-0.018629	0.00658	0.016074
0.694499999999979	0.008151	-0.003243	-0.038858	-0.000794	-0.160089	-0.018342	0.04509	0.030591
0.694999999999979	0.007547	-0.005002	-0.027081	9e-06	-0.20808	-0.01103	0.097792	0.046238
