Time	L_BF	L_GAL	L_TA	L_VL	R_BF	R_GAL	R_TA	R_VL
0	-0.006745	0.001221	-0.004878	0.011949	0.002798	-0.050948	-0.006098	-0.002963
0.0005	-0.006483	-0.001867	-0.039327	0.004396	0.002628	-0.123951	-0.005661	-0.005704
0.001	-0.005457	-0.001584	-0.065653	-0.00348	0.002799	-0.180984	-0.005512	-0.002545
0.0015	-0.004069	0.001221	-0.069447	-0.014245	0.002152	-0.179714	-0.004284	0.004754
0.002	-0.00252	0.003659	-0.050264	-0.028192	0.0006	-0.108894	-0.001435	0.007961
0.0025	-0.00071	0.004188	-0.026535	-0.040537	-0.000201	-0.027818	0.001641	0.002467
0.003	0.000809	0.002764	-0.011369	-0.045064	-0.000175	-0.003468	0.00392	-0.005618
0.0035	0.001486	0.000867	-0.005571	-0.043017	-0.000365	-0.031494	0.005789	-0.008389
0.004	0.001326	-0.000137	-0.012435	-0.041125	-0.001001	-0.049843	0.007437	-0.006572
0.0045	0.000587	-0.000974	-0.03656	-0.038231	-0.002681	-0.022851	0.008524	-0.005417
0.005	-0.000403	-0.001515	-0.069696	-0.028823	-0.004833	0.015436	0.008228	-0.007249
0.0055	-0.001251	-0.000656	-0.093646	-0.014288	-0.00562	0.007315	0.004537	-0.009868
0.006	-0.001545	0.000574	-0.099077	-0.000157	-0.005485	-0.058259	-0.002503	-0.009759
0.0065	-0.001646	0.001354	-0.092899	0.009721	-0.004822	-0.133677	-0.008738	-0.007033
0.007	-0.002734	0.001891	-0.085632	0.015077	-0.002624	-0.164675	-0.011158	-0.005372
0.0075	-0.005034	0.000744	-0.078965	0.017633	-0.000864	-0.141199	-0.011304	-0.006901
0.008	-0.007065	-0.002723	-0.068013	0.018103	-0.002297	-0.093589	-0.01173	-0.009576
0.0085	-0.007134	-0.0053	-0.050584	0.016043	-0.005265	-0.050968	-0.011779	-0.010447
0.009	-0.006137	-0.004099	-0.03117	0.011857	-0.007143	-0.019596	-0.007662	-0.008873
0.0095	-0.006091	-0.000425	-0.015732	0.007578	-0.008414	0.00458	0.003078	-0.006637
0.01	-0.005341	0.003129	-0.005418	0.003807	-0.009611	0.025167	0.016944	-0.006336
0.0105	-0.002305	0.004912	0.001402	-0.000351	-0.009444	0.045734	0.024989	-0.006736
0.011	5.2e-05	0.003995	0.005619	-0.003252	-0.007067	0.066271	0.02075	-0.003767
0.0115	-0.000275	0.000697	0.008623	-0.002537	-0.003312	0.081142	0.00895	0.00083
0.012	-0.001335	-0.003408	0.009342	0.001094	-5.8e-05	0.084905	0.001755	0.001011
0.0125	-0.000569	-0.005776	0.000402	0.005528	0.001452	0.076248	0.004981	-0.002588
0.013	0.00332	-0.004933	-0.022804	0.009439	0.001125	0.056592	0.012527	-0.003473
0.0135	0.010161	-0.002798	-0.051386	0.011749	-0.000689	0.030607	0.015495	-0.001042
0.014	0.017774	-0.002353	-0.070295	0.01164	-0.002755	0.00827	0.012171	1.7e-05
0.0145	0.022798	-0.003679	-0.074653	0.008969	-0.003842	0.000645	0.006092	0.000314
0.015	0.024894	-0.004111	-0.072486	0.004065	-0.004627	0.00954	-0.000186	0.002812
0.0155	0.027037	-0.00244	-0.072365	-0.001015	-0.005938	0.026754	-0.005442	0.004531
0.016	0.028996	-0.001237	-0.073477	-0.003547	-0.006376	0.046914	-0.008805	0.001713
0.0165	0.027768	-0.002378	-0.068682	-0.003716	-0.004725	0.070678	-0.010347	-0.002225
0.017	0.024489	-0.003393	-0.051214	-0.003609	-0.002388	0.09474	-0.011411	-0.000431
0.0175	0.023067	-0.001798	-0.014664	-0.004042	-0.0006	0.111738	-0.014199	0.006519
0.018	0.02393	0.001368	0.045652	-0.003956	0.000792	0.119628	-0.018838	0.010893
0.0185	0.023937	0.003908	0.126023	-0.002371	0.001485	0.12038	-0.022214	0.01028
0.019	0.020547	0.004792	0.212307	-0.000853	0.001926	0.110174	-0.022326	0.008553
0.0195	0.014057	0.0042	0.281552	-0.000988	0.003038	0.081296	-0.020065	0.007438
0.02	0.007811	0.003139	0.302329	-0.001459	0.003795	0.033154	-0.015774	0.006625
0.0205	0.005726	0.002967	0.248156	-0.00127	0.002937	-0.027474	-0.009673	0.005874
0.021	0.007236	0.003719	0.129044	-0.001695	0.00084	-0.0883	-0.004671	0.004744
0.0215	0.007809	0.003257	0.00123	-0.002582	-0.000755	-0.121852	-0.002755	0.004473
0.022	0.0063	0.000471	-0.075551	-0.001771	0.000608	-0.097407	-0.002097	0.006759
0.0225	0.006784	-0.00244	-0.089087	-0.000362	0.004303	-0.02779	-0.002318	0.009663
0.023	0.011096	-0.003523	-0.071908	-0.000701	0.00569	0.021567	-0.006213	0.010093
0.0235	0.014976	-0.003389	-0.056632	-0.000638	0.003728	0.006768	-0.013694	0.008192
0.024	0.01424	-0.003089	-0.049342	0.001256	0.003311	-0.034447	-0.020316	0.005293
0.0245	0.010017	-0.002687	-0.03868	0.001432	0.006136	-0.041369	-0.021904	0.002562
0.025	0.005749	-0.001006	-0.013059	-0.002385	0.008633	-0.0232	-0.017727	0.001302
0.0255	0.003331	0.00235	0.02961	-0.007726	0.0091	-0.034274	-0.010488	0.001347
0.026	0.00311	0.00526	0.076034	-0.012037	0.008014	-0.076279	-0.004086	0.00146
0.0265	0.003481	0.006595	0.099619	-0.014235	0.004659	-0.095513	-0.001024	0.000958
0.027	0.001609	0.00793	0.084376	-0.01421	-0.001498	-0.073367	-0.001455	0.000104
0.0275	-0.00283	0.009975	0.052431	-0.015845	-0.00835	-0.053661	-0.004234	-0.000831
0.028	-0.008509	0.011025	0.044474	-0.021143	-0.012709	-0.071567	-0.007355	-0.001377
0.0285	-0.016155	0.009604	0.064309	-0.024693	-0.013508	-0.103997	-0.007052	-0.00085
0.029	-0.024989	0.006525	0.071208	-0.021609	-0.011887	-0.107459	-0.00094	-0.000817
0.0295	-0.029066	0.00311	0.040094	-0.010255	-0.010608	-0.073264	0.007092	-0.002582
0.03	-0.024752	-0.000258	-0.000873	0.009282	-0.012917	-0.025764	0.010497	-0.004657
0.0305	-0.019281	-0.003027	-0.012174	0.031243	-0.018767	0.01333	0.00846	-0.006877
0.031	-0.023552	-0.004389	0.004005	0.047954	-0.022958	0.04065	0.004945	-0.010137
0.0315	-0.035353	-0.004047	0.016304	0.05766	-0.019824	0.060002	0.001262	-0.01291
0.032	-0.038757	-0.002848	0.010599	0.062063	-0.010031	0.068877	-0.004286	-0.013808
0.0325	-0.024881	-0.001822	-0.001592	0.061844	0.001595	0.054191	-0.01039	-0.013908
0.033	-0.004782	-0.001254	-0.008523	0.057529	0.012632	0.002372	-0.011546	-0.012963
0.0335	0.005814	-0.001732	-0.009433	0.049163	0.021911	-0.074153	-0.005195	-0.009903
0.034	0.005394	-0.002705	-0.00634	0.037517	0.027579	-0.13319	0.003993	-0.007796
0.0345	0.00193	-0.002926	0.00248	0.027046	0.029602	-0.144681	0.010228	-0.009088
0.035	-0.000186	-0.003879	0.019142	0.0204	0.03058	-0.11975	0.01157	-0.010912
0.0355	-0.002037	-0.006508	0.038841	0.014566	0.03266	-0.086248	0.009011	-0.010633
0.036	-0.005409	-0.007898	0.05165	0.008501	0.034864	-0.053046	0.006718	-0.008891
0.0365	-0.008727	-0.006373	0.053144	0.005534	0.035097	-0.005324	0.007933	-0.007291
0.037	-0.005357	-0.004193	0.046714	0.005892	0.031962	0.071858	0.010086	-0.006584
0.0375	0.011121	-0.00288	0.031344	0.005069	0.022885	0.167852	0.009785	-0.006067
0.038	0.03224	-0.001816	-0.004599	0.000926	0.006551	0.24947	0.006193	-0.004274
0.0385	0.031235	-0.000946	-0.064396	-0.00443	-0.009912	0.289612	-0.00048	-0.001102
0.039	-0.009431	0.00045	-0.1223	-0.009892	-0.016203	0.28224	-0.006739	0.001108
0.0395	-0.06764	0.003262	-0.144173	-0.015616	-0.015229	0.235069	-0.007892	0.000871
0.04	-0.095063	0.00534	-0.134214	-0.020213	-0.021548	0.167807	-0.004782	7.2e-05
0.0405	-0.068672	0.004855	-0.136649	-0.021642	-0.03946	0.110695	-0.001708	0.000902
0.041	-0.017428	0.003473	-0.1775	-0.019391	-0.052697	0.081473	-0.000399	0.003158
0.0415	0.01305	0.003022	-0.225268	-0.014984	-0.043616	0.069019	-0.00018	0.005868
0.042	0.011144	0.004006	-0.225896	-0.010929	-0.018704	0.054696	0.000261	0.008451
0.0425	0.00239	0.007247	-0.165049	-0.009719	-0.001047	0.039168	0.001147	0.009454
0.043	0.010849	0.012498	-0.081028	-0.011142	0.000147	0.034633	0.00086	0.008626
0.0435	0.03145	0.016598	-0.01515	-0.011621	-0.004087	0.041817	-0.00071	0.008745
0.044	0.040748	0.016439	0.040007	-0.009418	-0.003148	0.049147	-0.001794	0.010381
0.0445	0.026049	0.012363	0.122054	-0.005913	0.001183	0.048784	-0.001978	0.01078
0.045	0.0003	0.006746	0.22399	-0.002039	0.003305	0.043078	-0.001523	0.009674
0.0455	-0.013067	0.001149	0.272947	0.001981	0.002818	0.037394	-7e-06	0.009098
0.046	-0.008332	-0.003569	0.212017	0.005898	0.002372	0.031755	0.001756	0.009274
0.0465	-0.002079	-0.006426	0.079298	0.00917	0.002964	0.021018	0.001147	0.008956
0.047	-0.009072	-0.007635	-0.028362	0.010554	0.003448	0.004408	-0.003276	0.008628
0.0475	-0.025491	-0.007888	-0.057036	0.009257	0.003325	-0.010099	-0.009387	0.009573
0.048	-0.041935	-0.006779	-0.029566	0.006403	0.00381	-0.017705	-0.013052	0.010274
0.0485	-0.057278	-0.005175	0.009498	0.005173	0.00471	-0.024946	-0.012707	0.009767
0.049	-0.067016	-0.004889	0.04193	0.007208	0.004449	-0.035299	-0.011063	0.010357
0.0495	-0.056669	-0.005479	0.066893	0.009351	0.003544	-0.037041	-0.010872	0.012046
0.05	-0.022568	-0.005866	0.080878	0.008534	0.003506	-0.019906	-0.012026	0.011864
0.0505	0.015813	-0.00654	0.082776	0.006963	0.003816	0.001317	-0.013069	0.009226
0.051	0.034921	-0.008347	0.080719	0.007165	0.003036	-0.004501	-0.012957	0.005908
0.0515	0.026782	-0.011005	0.08083	0.007572	0.001579	-0.044906	-0.011639	0.004029
0.052	-0.001281	-0.012931	0.07697	0.006843	0.001081	-0.084422	-0.009152	0.005331
0.0525	-0.030686	-0.012436	0.059362	0.00502	0.00159	-0.083169	-0.005804	0.007952
0.053	-0.039184	-0.009595	0.030346	0.00276	0.001147	-0.049704	-0.003081	0.007833
0.0535	-0.020369	-0.00661	0.006703	0.002606	-0.0009	-0.031899	-0.001538	0.004485
0.054	0.007642	-0.005109	0.003178	0.004619	-0.002295	-0.053711	-0.000121	0.000402
0.0545	0.022039	-0.00421	0.014715	0.004969	-0.001709	-0.086474	0.001691	-0.00214
0.055	0.018862	-0.002349	0.021713	-0.000279	-0.000232	-0.091153	0.003499	-0.002479
0.0555	0.011218	0.000823	0.011844	-0.012953	0.001026	-0.066331	0.003858	-0.001743
0.056	0.011032	0.004717	-0.008982	-0.02936	0.001859	-0.040124	0.001094	-0.001204
0.0565	0.018172	0.008266	-0.026175	-0.040186	0.002196	-0.03111	-0.002978	-0.001537
0.057	0.02612	0.009907	-0.034957	-0.038348	0.00089	-0.032558	-0.003671	-0.002725
0.0575	0.032577	0.009683	-0.044924	-0.027812	-0.001881	-0.026932	-3.7e-05	-0.004641
0.058	0.038486	0.009891	-0.064437	-0.018383	-0.003144	-0.007445	0.003923	-0.006982
0.0585	0.043645	0.011096	-0.090974	-0.011397	-0.001784	0.017252	0.00555	-0.008438
0.059	0.048645	0.011667	-0.121372	-0.001352	0.000928	0.038192	0.006439	-0.008163
0.0595	0.054955	0.011368	-0.157937	0.012335	0.003759	0.052685	0.009073	-0.005616
0.06	0.062918	0.010734	-0.194112	0.025091	0.004858	0.053065	0.012532	-0.000768
0.0605	0.071524	0.009105	-0.20534	0.033621	0.004253	0.02597	0.012769	0.003461
0.061	0.078914	0.006003	-0.169606	0.037564	0.004192	-0.026211	0.009128	0.004109
0.0615	0.082919	0.001999	-0.094707	0.038746	0.004119	-0.072938	0.006531	0.002646
0.062	0.081916	-0.001282	-0.015182	0.038981	0.002139	-0.079783	0.008139	0.002036
0.0625	0.077507	-0.002238	0.037437	0.037238	-0.000416	-0.044549	0.011912	0.001793
0.063	0.073548	-0.001868	0.055406	0.033727	-0.001197	0.001027	0.014716	0.00067
0.0635	0.068264	-0.001885	0.050848	0.032541	4e-05	0.025751	0.014434	0.000295
0.064	0.050802	-0.001725	0.0409	0.033832	0.001496	0.025022	0.011121	0.001422
0.0645	0.010614	-0.000626	0.035055	0.032312	0.001038	0.012495	0.007778	0.001737
0.065	-0.046403	0.000211	0.032533	0.026734	-0.000972	0.000896	0.005901	-0.000194
0.0655	-0.091559	-0.00093	0.030384	0.021086	-0.001757	-0.004021	0.003185	-0.00281
0.066	-0.094704	-0.003517	0.029325	0.017297	-0.000347	-0.001946	-0.000835	-0.004246
0.0665	-0.063689	-0.005169	0.030791	0.013856	0.000547	0.002801	-0.002481	-0.004273
0.067	-0.047176	-0.00469	0.033307	0.008265	-0.001607	0.004172	-0.000387	-0.0036
0.0675	-0.078464	-0.00258	0.033394	-0.001089	-0.005414	0.000102	0.002291	-0.004147
0.068	-0.133857	-0.000551	0.029481	-0.011184	-0.007034	-0.005363	0.003327	-0.006684
0.0685	-0.163296	-0.000569	0.024016	-0.016412	-0.004869	-0.006746	0.002948	-0.008184
0.069	-0.1462	-0.001825	0.019837	-0.016605	-0.001706	-0.003296	0.002229	-0.007033
0.0695	-0.102779	-0.001544	0.016825	-0.016577	-0.000895	0.001578	0.002341	-0.005701
0.07	-0.060933	0.00074	0.014058	-0.019882	-0.001588	0.006714	0.002232	-0.005365
0.0705	-0.031962	0.002864	0.012002	-0.026026	-0.000587	0.014561	-0.000183	-0.004895
0.071	-0.015724	0.003455	0.011393	-0.031728	0.002957	0.026702	-0.004577	-0.004805
0.0715	-0.009225	0.003616	0.011506	-0.035168	0.00782	0.041054	-0.009199	-0.006927
0.0720000000000001	-0.006781	0.003498	0.011116	-0.035029	0.011624	0.052076	-0.012175	-0.010556
0.0725000000000001	-0.002519	0.00106	0.01066	-0.029251	0.01117	0.055818	-0.012021	-0.012375
0.0730000000000001	0.004515	-0.003101	0.011134	-0.020746	0.006967	0.053372	-0.009406	-0.010356
0.0735000000000001	0.01122	-0.005409	0.013277	-0.014476	0.003406	0.043469	-0.008006	-0.005926
0.0740000000000001	0.014448	-0.004139	0.019583	-0.009641	0.002235	0.017531	-0.011016	-0.002216
0.0745000000000001	0.013286	-0.001037	0.032783	-0.003802	0.001598	-0.028387	-0.015972	-0.001339
0.0750000000000001	0.010733	0.001514	0.050611	0.001101	0.000341	-0.079449	-0.017318	-0.003862
0.0755000000000001	0.010608	0.002421	0.06457	0.002493	-0.001302	-0.110106	-0.013358	-0.007148
0.0760000000000001	0.012802	0.001309	0.065237	0.002034	-0.003283	-0.108632	-0.007173	-0.006685
0.0765000000000001	0.015508	-0.000307	0.048138	0.001036	-0.004993	-0.087317	-0.002314	-0.00361
0.0770000000000001	0.017826	-0.000504	0.017069	-0.002067	-0.005342	-0.065513	0.000819	-0.002228
0.0775000000000001	0.019325	-0.000377	-0.014422	-0.004368	-0.004259	-0.045791	0.003797	-0.002197
0.0780000000000001	0.021098	-0.001893	-0.03088	0.000469	-0.001825	-0.015625	0.006665	-0.001891
0.0785000000000001	0.023735	-0.004745	-0.032271	0.012138	0.000899	0.023933	0.008033	-0.001837
0.0790000000000001	0.025112	-0.006229	-0.039322	0.023124	0.000803	0.047456	0.007774	-0.002197
0.0795000000000001	0.024914	-0.003799	-0.073297	0.026782	-0.002403	0.035845	0.007352	-0.002099
0.0800000000000001	0.025435	0.000786	-0.127837	0.022011	-0.004473	0.003754	0.007594	-0.001227
0.0805000000000001	0.026068	0.002654	-0.168837	0.009695	-0.003437	-0.017471	0.008006	-0.000142
0.0810000000000001	0.024055	0.001387	-0.171887	-0.013454	-0.002027	-0.015039	0.007964	0.00065
0.0815000000000001	0.019873	0.001634	-0.149207	-0.050289	-0.001889	-0.003376	0.007209	0.000375
0.0820000000000001	0.016502	0.00381	-0.121984	-0.089201	-0.001575	-0.003376	0.005601	-0.001075
0.0825000000000001	0.015342	0.003264	-0.07366	-0.107609	-0.000274	-0.017175	0.002755	-0.002189
0.0830000000000001	0.015624	-0.001249	0.041849	-0.095719	5e-06	-0.023227	-0.00058	-0.002258
0.0835000000000001	0.015245	-0.00653	0.22648	-0.06363	-0.002515	-0.003989	-0.002115	-0.001904
0.0840000000000001	0.012913	-0.009226	0.389508	-0.025774	-0.004775	0.024703	-0.00127	-0.001562
0.0845000000000001	0.010562	-0.008619	0.418369	0.008858	-0.003265	0.031885	0.000628	-0.002123
0.0850000000000001	0.010509	-0.007435	0.306684	0.036224	-0.000399	0.016881	0.003566	-0.004469
0.0855000000000001	0.011959	-0.007633	0.167296	0.055937	0.000286	0.00947	0.008847	-0.007367
0.0860000000000001	0.013575	-0.007113	0.102303	0.068742	-0.000174	0.023385	0.015578	-0.008297
0.0865000000000001	0.015074	-0.00393	0.101721	0.075172	0.001473	0.037784	0.019434	-0.006364
0.0870000000000001	0.0152	0.000615	0.089378	0.075228	0.005809	0.032732	0.017283	-0.003484
0.0875000000000001	0.01378	0.004613	0.020301	0.06649	0.010128	0.018323	0.011941	-0.002143
0.0880000000000001	0.012642	0.007045	-0.097585	0.049312	0.011812	0.014006	0.010079	-0.001238
0.0885000000000001	0.012256	0.008313	-0.225384	0.03238	0.009734	0.020221	0.014157	0.002142
0.0890000000000001	0.012695	0.009702	-0.306428	0.022509	0.005033	0.025922	0.018544	0.00664
0.0895000000000001	0.013518	0.009907	-0.309048	0.014763	0.001216	0.027116	0.016223	0.008926
0.0900000000000001	0.011579	0.006895	-0.265139	0.000147	0.000166	0.027023	0.007207	0.008523
0.0905000000000001	0.00584	0.003364	-0.21578	-0.020789	0.000477	0.027288	-0.001926	0.006216
0.0910000000000001	0.000999	0.003584	-0.141208	-0.036595	0.000392	0.026003	-0.006038	0.0035
0.0915000000000001	0.001433	0.006499	-0.015968	-0.038409	-0.000569	0.022047	-0.00572	0.002933
0.0920000000000001	0.004517	0.007799	0.091823	-0.030088	-0.002026	0.01745	-0.003486	0.004885
0.0925000000000001	0.004706	0.006601	0.075003	-0.021225	-0.003524	0.014604	-0.000175	0.006763
0.0930000000000001	0.002038	0.004385	-0.045634	-0.013246	-0.005127	0.011582	0.003726	0.007829
0.0935000000000001	-0.000643	0.000195	-0.106454	2e-05	-0.007259	0.005225	0.005733	0.009316
0.0940000000000001	-0.006157	-0.007428	-0.012543	0.018491	-0.009345	-0.001326	0.002996	0.009568
0.0945000000000001	-0.019447	-0.016064	0.111141	0.03363	-0.00983	-0.003105	-0.003033	0.006879
0.0950000000000001	-0.034748	-0.02102	0.073368	0.038943	-0.008972	-0.001343	-0.007039	0.003235
0.0955000000000001	-0.037716	-0.020571	-0.129469	0.03636	-0.008418	-0.00025	-0.006777	0.001314
0.0960000000000001	-0.026375	-0.016848	-0.321255	0.032075	-0.008109	-0.001078	-0.006059	0.002158
0.0965000000000001	-0.015407	-0.011781	-0.368213	0.023267	-0.007772	-0.001595	-0.008875	0.004274
0.0970000000000001	-0.014434	-0.005524	-0.276349	-0.002322	-0.008401	3.6e-05	-0.01369	0.004361
0.0975000000000001	-0.017548	0.001153	-0.093157	-0.044577	-0.009035	0.002099	-0.015707	0.00138
0.0980000000000001	-0.016201	0.006308	0.159946	-0.081412	-0.00745	0.001781	-0.013379	-0.000962
0.0985000000000001	-0.009336	0.00956	0.430207	-0.090929	-0.003354	-0.000614	-0.010379	0.000706
0.0990000000000001	0.00059	0.012516	0.60328	-0.074267	0.003037	-0.00216	-0.010204	0.004263
0.0995000000000001	0.011576	0.014974	0.593662	-0.04788	0.010244	-0.001689	-0.011949	0.006753
0.1	0.020139	0.014893	0.432017	-0.021454	0.014489	-0.001093	-0.013194	0.00762
0.1005	0.021762	0.013047	0.227536	0.006567	0.01354	-0.002115	-0.013696	0.006796
0.101	0.015996	0.012139	0.06857	0.036182	0.008402	-0.004056	-0.014489	0.005424
0.1015	0.009555	0.012812	-0.018697	0.059743	0.00238	-0.005685	-0.015172	0.004748
0.102	0.011443	0.013617	-0.044348	0.070453	-0.000841	-0.007308	-0.014789	0.004461
0.1025	0.0236	0.012047	-0.027939	0.068189	-0.000922	-0.008901	-0.014204	0.004281
0.103	0.037735	0.006814	0.000174	0.056342	-0.000879	-0.009927	-0.014315	0.004328
0.1035	0.042165	0.000265	0.001247	0.038711	-0.002027	-0.011062	-0.014587	0.00365
0.104	0.030804	-0.004023	-0.041094	0.02055	-0.002491	-0.011984	-0.014695	0.001556
0.1045	0.007191	-0.00556	-0.097507	0.007788	-0.001396	-0.010967	-0.014474	0.000293
0.105	-0.017198	-0.006779	-0.122853	3.7e-05	0.00014	-0.009117	-0.013705	0.001769
0.1055	-0.029789	-0.009026	-0.111924	-0.007504	0.001452	-0.009958	-0.012824	0.003763
0.106	-0.026495	-0.010667	-0.10817	-0.013593	0.002063	-0.013718	-0.011819	0.002984
0.1065	-0.015498	-0.010033	-0.151981	-0.013509	0.001589	-0.01676	-0.010029	-0.000389
0.107	-0.00817	-0.008512	-0.231312	-0.008169	0.000541	-0.017194	-0.008271	-0.002215
0.1075	-0.007379	-0.008037	-0.286794	-0.003846	-0.000658	-0.016574	-0.008268	-0.000304
0.108	-0.008484	-0.00758	-0.261252	-0.004861	-0.001321	-0.016139	-0.009597	0.001375
0.1085	-0.008767	-0.005239	-0.157245	-0.007959	6.4e-05	-0.015536	-0.010765	-0.000743
0.109	-0.01051	-0.001158	-0.05804	-0.007736	0.003538	-0.014559	-0.011261	-0.004369
0.1095	-0.015182	0.003271	-0.058607	-0.005496	0.00604	-0.013077	-0.010293	-0.005362
0.11	-0.01954	0.006089	-0.142147	-0.005091	0.004123	-0.010556	-0.007185	-0.002448
0.1105	-0.019739	0.005366	-0.16914	-0.006116	-0.001637	-0.00712	-0.00281	0.00143
0.111	-0.015998	0.002029	-0.042879	-0.008326	-0.006981	-0.003068	0.001099	0.001456
0.1115	-0.011002	-0.001336	0.164182	-0.012767	-0.008694	0.001882	0.003891	-0.002838
0.112	-0.006504	-0.004697	0.309403	-0.015089	-0.007329	0.006463	0.007101	-0.005949
0.1125	-0.002371	-0.00866	0.336815	-0.010744	-0.005246	0.008495	0.011647	-0.004391
0.113	0.002117	-0.011406	0.270893	-0.004104	-0.003601	0.008033	0.015095	-0.002011
0.1135	0.005358	-0.011266	0.145467	-0.000735	-0.002498	0.006313	0.014761	-0.003335
0.114	0.004858	-0.009069	0.018509	1e-06	-0.001885	0.004408	0.011925	-0.00678
0.1145	0.002062	-0.006495	-0.03092	-0.000114	-0.001323	0.00336	0.010343	-0.008304
0.115	-2.9e-05	-0.003705	-0.001231	1.9e-05	-0.000673	0.003354	0.011547	-0.007222
0.1155	-0.002124	0.000399	0.009868	0.002516	-0.000231	0.004229	0.013897	-0.005512
0.116	-0.004762	0.005554	-0.056935	0.007149	0.000572	0.005437	0.015082	-0.004607
0.1165	-0.005201	0.00977	-0.143963	0.01005	0.002252	0.005351	0.01421	-0.003924
0.117	-0.003684	0.012763	-0.193421	0.008843	0.003639	0.00303	0.012528	-0.002265
0.1175	-0.003961	0.016584	-0.240115	0.004243	0.00428	-5.5e-05	0.011509	-0.00101
0.118	-0.007553	0.020613	-0.297592	-0.00467	0.00512	-0.001437	0.011397	-0.001412
0.1185	-0.012563	0.020868	-0.266742	-0.026205	0.005764	-0.000751	0.012277	-0.00132
0.119	-0.014399	0.016684	-0.097499	-0.071978	0.005466	0.000262	0.013123	7e-05
0.1195	-0.010402	0.01155	0.062739	-0.135361	0.005094	0.000626	0.012064	0.001283
0.12	-0.004699	0.006837	0.05755	-0.184581	0.005811	0.001299	0.009916	0.002131
0.1205	-0.00268	0.001035	-0.021215	-0.194333	0.006999	0.003084	0.00875	0.002782
0.121	-0.004364	-0.004859	0.046165	-0.169606	0.007474	0.004518	0.00628	0.002556
0.1215	-0.006519	-0.006663	0.276071	-0.125426	0.007401	0.003138	-0.001717	0.001325
0.122	-0.006101	-0.003143	0.453197	-0.064311	0.006503	-0.001028	-0.011698	0.000788
0.1225	-0.001533	0.001787	0.424579	0.011627	0.004881	-0.00357	-0.014139	0.001927
0.123	0.005256	0.003283	0.268863	0.085331	0.003948	-0.001258	-0.006787	0.003155
0.1235	0.009951	8.4e-05	0.152139	0.134857	0.003561	0.002792	0.002741	0.00376
0.124	0.010926	-0.004304	0.132574	0.151302	0.003082	0.005007	0.007317	0.004077
0.1245	0.009557	-0.006243	0.153466	0.143489	0.002762	0.005781	0.007084	0.002767
0.125	0.007252	-0.006022	0.155326	0.126744	0.002555	0.006459	0.006186	-0.000717
0.1255	0.006026	-0.005152	0.132471	0.110539	0.002305	0.007312	0.006379	-0.003148
0.126	0.00723	-0.003741	0.102447	0.098691	0.00154	0.007669	0.006751	-0.001233
0.1265	0.008158	-0.002243	0.071352	0.092997	-0.000182	0.007855	0.007102	0.003418
0.127	0.005739	-0.002055	0.038408	0.091488	-0.001816	0.008635	0.007103	0.006325
0.1275	0.001911	-0.003407	0.007455	0.088301	-0.001815	0.008068	0.005511	0.005236
0.128	-0.000137	-0.005781	-0.018813	0.079061	-0.000929	0.0044	0.002753	0.002079
0.1285	-0.000316	-0.008769	-0.042604	0.064114	-0.001346	0.000179	0.001116	0.00049
0.129	0.000482	-0.01079	-0.06595	0.045766	-0.003259	-0.001155	0.002258	0.000947
0.1295	0.001211	-0.01069	-0.093436	0.02728	-0.004762	-0.000403	0.005663	0.000797
0.13	1.9e-05	-0.009294	-0.133642	0.013277	-0.003951	-0.00045	0.009612	-0.000991
0.1305	-0.003719	-0.008153	-0.182861	0.00534	-0.001326	-0.0009	0.012711	-0.002583
0.131	-0.007647	-0.007701	-0.217468	-0.000324	0.000455	0.000186	0.013064	-0.00292
0.1315	-0.00854	-0.005653	-0.217838	-0.007503	0.000455	0.001376	0.008797	-0.003504
0.132	-0.006225	-0.000912	-0.191671	-0.014459	-0.00061	-0.000394	0.001521	-0.005149
0.1325	-0.003111	0.003618	-0.162043	-0.016879	-0.002528	-0.004239	-0.003627	-0.006664
0.133	-0.00087	0.00645	-0.137021	-0.014698	-0.003994	-0.006069	-0.003369	-0.006899
0.1335	0.000163	0.009113	-0.108588	-0.013277	-0.00331	-0.005415	0.000377	-0.005526
0.134	0.000114	0.012068	-0.081142	-0.017621	-0.001606	-0.006146	0.004128	-0.00377
0.1345	-0.000164	0.014101	-0.062042	-0.025825	-0.001403	-0.009571	0.006209	-0.003433
0.135	0.001779	0.01347	-0.018622	-0.032281	-0.002905	-0.012025	0.005726	-0.004277
0.1355	0.006567	0.008432	0.088382	-0.034803	-0.004292	-0.010206	0.003336	-0.003764
0.136	0.010347	-0.00025	0.212473	-0.034053	-0.004468	-0.005545	0.002077	-0.000462
0.1365	0.011217	-0.00759	0.24485	-0.031689	-0.003968	-0.001271	0.003828	0.002478
0.137	0.010651	-0.009722	0.151584	-0.02869	-0.003963	0.001599	0.006719	0.002546
0.1375	0.007706	-0.010536	0.008245	-0.024077	-0.004616	0.002703	0.006895	0.002055
0.138	0.001991	-0.016617	-0.106375	-0.018685	-0.004403	0.001706	0.002917	0.001679
0.1385	-0.002819	-0.026898	-0.170542	-0.014699	-0.001908	0.000151	-0.001637	0.000687
0.139	-0.004017	-0.03392	-0.181244	-0.010218	0.001404	-0.000243	-0.002331	0.001689
0.1395	-0.002753	-0.032933	-0.13667	-0.002199	0.0019	0.000233	0.000711	0.004859
0.14	-0.001265	-0.025372	-0.063344	0.005442	-0.000731	0.000613	0.004355	0.005319
0.1405	-0.000563	-0.016062	-0.00607	0.00438	-0.002911	0.001036	0.006976	0.001499
0.141	0.000308	-0.008535	0.015774	-0.007959	-0.00268	0.002673	0.009021	-0.002295
0.1415	0.004195	-0.002792	0.01328	-0.027293	-0.000477	0.005518	0.010744	-0.003284
0.142	0.011579	0.000854	0.000608	-0.047741	0.001613	0.006656	0.011884	-0.002501
0.1425	0.018259	0.000583	-0.012309	-0.063785	0.001164	0.004793	0.012891	-0.001085
0.143	0.020508	-0.001563	-0.013223	-0.071219	-0.00042	0.003549	0.013834	0.000447
0.1435	0.017701	0.000305	0.003567	-0.068846	-0.00028	0.005282	0.013289	0.001752
0.144	0.011903	0.011444	0.02698	-0.058845	0.000655	0.007982	0.010225	0.002048
0.1445	0.007238	0.032487	0.041858	-0.043748	0.000106	0.009364	0.00517	0.000186
0.145	0.005556	0.053864	0.046877	-0.02503	-0.000904	0.008792	-0.001141	-0.002696
0.1455	0.004726	0.059508	0.049149	-0.004802	-0.000456	0.006478	-0.007942	-0.002801
0.146	0.002633	0.043524	0.048445	0.014559	0.000522	0.003166	-0.013435	0.000995
0.1465	-2.2e-05	0.018007	0.038331	0.029521	0.000586	0.000325	-0.01583	0.004172
0.147	-0.001781	-0.000897	0.0178	0.033878	-0.000383	-0.001664	-0.014989	0.003468
0.1475	-0.00272	-0.007965	-0.006106	0.02162	-0.0014	-0.00347	-0.01255	0.000933
0.148	-0.003085	-0.006971	-0.023624	-0.004086	-0.001608	-0.003878	-0.010958	-0.000552
0.1485	-0.003451	-0.002772	-0.028553	-0.02608	-0.002177	-0.002065	-0.011104	0.000766
0.149	-0.005354	0.001615	-0.022606	-0.030125	-0.003475	0.000327	-0.011449	0.003638
0.1495	-0.007868	0.004403	-0.015113	-0.022105	-0.003317	0.001741	-0.010355	0.003319
0.15	-0.008731	0.003855	-0.019106	-0.014935	-0.001416	0.000834	-0.008216	-0.001196
0.1505	-0.008782	-0.000843	-0.042007	-0.009092	-0.000836	-0.002632	-0.007523	-0.004499
0.151	-0.008713	-0.007036	-0.074633	0.001691	-0.002051	-0.005096	-0.009752	-0.003413
0.1515	-0.007558	-0.009827	-0.093551	0.016757	-0.001735	-0.003277	-0.012418	-0.001294
0.152	-0.006747	-0.007076	-0.083594	0.03083	-5e-06	0.000226	-0.012104	-0.000646
0.1525	-0.007292	-0.001237	-0.062019	0.040646	0.000258	0.001452	-0.009283	-0.000452
0.153	-0.007152	0.003838	-0.064	0.045451	0.000206	0.000499	-0.007366	-0.000244
0.1535	-0.005464	0.006931	-0.093086	0.046829	0.001854	-0.000797	-0.007898	0.000637
0.154	-0.00281	0.008738	-0.109533	0.046829	0.003216	-0.001278	-0.00922	0.002557
0.1545	0.000548	0.008435	-0.079371	0.045674	0.002789	-0.001078	-0.009249	0.003074
0.155	0.00372	0.004512	-0.010196	0.042742	0.002445	-0.000985	-0.007601	6.3e-05
0.1555	0.005607	-0.002344	0.069386	0.039286	0.003726	-0.001325	-0.005923	-0.003886
0.156	0.004961	-0.008577	0.136939	0.037112	0.005255	-0.002647	-0.006314	-0.004733
0.1565	0.00155	-0.010485	0.170473	0.034262	0.003986	-0.00508	-0.008476	-0.004001
0.157	-0.002218	-0.008263	0.148334	0.02906	-0.000248	-0.007415	-0.010101	-0.004507
0.1575	-0.004097	-0.004506	0.079533	0.023465	-0.00325	-0.00807	-0.009559	-0.004005
0.158	-0.003555	-0.000729	0.009537	0.017169	-0.001833	-0.006279	-0.006615	-0.001541
0.1585	-0.001468	0.001803	-0.028334	0.009329	0.002262	-0.003051	-0.003188	-0.000279
0.159	-0.000442	0.002181	-0.04549	0.003484	0.004623	-0.000855	-0.001946	-0.001365
0.1595	-0.002139	0.00122	-0.06366	0.002571	0.003913	-0.002104	-0.002776	-0.00279
0.16	-0.004627	-0.000337	-0.073938	0.004056	0.003731	-0.006298	-0.004575	-0.003411
0.1605	-0.004202	-0.002744	-0.051088	0.001148	0.006067	-0.009235	-0.006919	-0.004388
0.161	8.4e-05	-0.004947	0.008015	-0.013252	0.007384	-0.008446	-0.007873	-0.00579
0.1615	0.004514	-0.004088	0.079131	-0.042068	0.004919	-0.005845	-0.006417	-0.005502
0.162	0.004815	0.001043	0.14297	-0.078905	0.001157	-0.003621	-0.004234	-0.00356
0.1625	0.001321	0.007127	0.206455	-0.107174	-7.7e-05	-0.002209	-0.001769	-0.002583
0.163	-0.001758	0.009236	0.273105	-0.112305	0.002047	-0.001259	0.000997	-0.003202
0.1635	-0.000957	0.006101	0.299165	-0.096331	0.004795	-0.000635	0.00233	-0.003779
0.164	0.003244	0.001316	0.216127	-0.072848	0.005152	-0.00064	0.001577	-0.003632
0.1645	0.006764	5.2e-05	0.024371	-0.048302	0.003253	-0.000885	-0.000534	-0.002949
0.165	0.006686	0.003939	-0.158286	-0.019367	0.001196	-4.2e-05	-0.003217	-0.001899
0.1655	0.003976	0.009331	-0.193632	0.01343	0.000366	0.001874	-0.005954	-0.000898
0.166	0.000126	0.011469	-0.080416	0.042517	0.000434	0.003126	-0.009413	0.00044
0.1665	-0.003653	0.009319	0.035256	0.061024	0.000364	0.003804	-0.013842	0.00198
0.167	-0.00512	0.004767	0.041499	0.068332	-6.5e-05	0.004973	-0.018288	0.001976
0.1675	-0.004221	-0.000229	-0.005292	0.069419	-0.000644	0.005433	-0.022611	0.000726
0.168	-0.003572	-0.003987	0.001976	0.067739	-0.000793	0.00445	-0.0269	0.000584
0.1685	-0.00332	-0.006611	0.035557	0.063264	0.000405	0.003651	-0.029879	0.001295
0.169	-0.000932	-0.009874	-0.011895	0.058464	0.002208	0.004496	-0.030068	0.000445
0.1695	0.003498	-0.013728	-0.125918	0.057155	0.002474	0.006326	-0.027497	-0.001485
0.17	0.007338	-0.01519	-0.167494	0.057199	0.001034	0.007007	-0.022753	-0.001237
0.1705	0.009153	-0.011846	-0.065903	0.052139	-0.000526	0.005468	-0.014893	0.001911
0.171	0.008169	-0.006126	0.1049	0.038677	-0.00214	0.002455	-0.004248	0.004703
0.1715	0.004334	-0.00232	0.232382	0.018412	-0.003938	-0.00042	0.002005	0.00379
0.172	-0.000622	-0.001304	0.247473	-0.001721	-0.004121	-0.001701	-0.005245	0.000951
0.1725	-0.005103	-0.001605	0.134819	-0.012905	-0.002057	-0.001328	-0.022565	0.000843
0.173	-0.007419	-0.001619	-0.034383	-0.014523	3.3e-05	-0.000813	-0.033666	0.002881
0.1735	-0.005851	-0.001331	-0.120373	-0.013565	0.000364	-0.002255	-0.030992	0.003892
0.174	-0.00191	-0.002289	-0.063414	-0.014612	-0.000578	-0.005684	-0.027903	0.004046
0.1745	0.000991	-0.004262	0.032187	-0.016915	-0.002057	-0.008606	-0.040101	0.004362
0.175	0.001863	-0.005347	0.041644	-0.018676	-0.00344	-0.00928	-0.066416	0.004651
0.1755	0.001862	-0.00497	-0.020916	-0.018534	-0.003579	-0.007857	-0.098633	0.004508
0.176	0.001525	-0.003744	-0.063219	-0.014558	-0.002853	-0.005885	-0.139625	0.004413
0.1765	0.000913	-0.001817	-0.060994	-0.008214	-0.003207	-0.004613	-0.198127	0.004517
0.177	0.000385	0.000291	-0.061434	-0.004611	-0.005592	-0.002774	-0.261642	0.003973
0.1775	-0.00061	0.000803	-0.088385	-0.006054	-0.008373	0.001222	-0.27837	0.003227
0.178	-0.00299	-0.000599	-0.115182	-0.010213	-0.008775	0.006667	-0.181252	0.003096
0.1785	-0.006035	-0.001474	-0.117243	-0.013159	-0.006495	0.011747	0.047306	0.002874
0.179	-0.007971	-0.000782	-0.102077	-0.013017	-0.004007	0.014568	0.324331	0.00244
0.1795	-0.008196	-0.000981	-0.08484	-0.011587	-0.003548	0.014682	0.505091	0.002891
0.18	-0.007114	-0.002954	-0.067672	-0.012224	-0.004803	0.015605	0.507698	0.003565
0.1805	-0.005848	-0.004017	-0.049327	-0.014869	-0.00588	0.019865	0.387729	0.003698
0.181	-0.006119	-0.002736	-0.033889	-0.014992	-0.005892	0.023357	0.260118	0.004602
0.1815	-0.006801	-1.5e-05	-0.024136	-0.010994	-0.005081	0.022449	0.172212	0.00505
0.182	-0.005096	0.002372	-0.016824	-0.007246	-0.004201	0.018811	0.102204	0.003051
0.1825	-0.001539	0.002241	-0.008625	-0.006752	-0.003894	0.012949	0.057034	0.000845
0.183	0.001075	0.000404	-0.000699	-0.007874	-0.003591	0.004378	0.083834	0.000486
0.1835	0.000658	-1.8e-05	0.005714	-0.009153	-0.002478	-0.002846	0.16822	0.000934
0.184	-0.002071	0.000878	0.012947	-0.010861	-0.000745	-0.004372	0.207167	0.000724
0.1845	-0.003513	0.001149	0.022575	-0.012206	0.000768	-0.002364	0.12864	7.6e-05
0.185	-0.001558	0.000716	0.030685	-0.012328	0.001216	-0.002275	-0.016817	0.000667
0.1855	0.002662	-0.000176	0.032448	-0.01288	0.000929	-0.005258	-0.122837	0.002738
0.186	0.005913	-0.001592	0.029818	-0.015401	0.00091	-0.008537	-0.147253	0.004315
0.1865	0.00429	-0.002424	0.028676	-0.017903	0.000833	-0.010784	-0.13262	0.003752
0.187	-0.001096	-0.001482	0.030743	-0.017923	0.000325	-0.011997	-0.133743	0.001379
0.1875	-0.003627	0.000418	0.032305	-0.016038	-0.000116	-0.012229	-0.16049	-0.001595
0.188	-0.001536	0.001189	0.028349	-0.012532	-0.000764	-0.01281	-0.181404	-0.004338
0.1885	-0.000428	0.000517	0.017587	-0.006003	-0.00186	-0.014263	-0.151644	-0.005184
0.189	-0.00287	0.000967	0.003183	0.001378	-0.001973	-0.01507	-0.045662	-0.003052
0.1895	-0.004654	0.003501	-0.010291	0.004973	2.8e-05	-0.014828	0.104456	0.000559
0.19	-0.0022	0.004704	-0.018046	0.004492	0.002247	-0.014046	0.210141	0.004138
0.1905	0.003401	0.002671	-0.018062	0.00266	0.002167	-0.011511	0.202029	0.006254
0.191	0.008478	2.5e-05	-0.014367	0.001813	0.00071	-0.007019	0.103054	0.004801
0.1915	0.009659	-0.000785	-0.012875	0.003942	0.000976	-0.003424	-0.001728	0.000984
0.192	0.007339	0.000268	-0.015185	0.008421	0.003689	-0.002161	-0.056757	-0.000311
0.1925	0.005326	0.002146	-0.018159	0.012271	0.006422	-0.001151	-0.067785	0.002916
0.193	0.005334	0.003122	-0.017232	0.01356	0.007094	0.000806	-0.058687	0.007118
0.1935	0.005646	0.001968	-0.010473	0.012127	0.00581	0.001736	-0.038353	0.007762
0.194	0.005663	0.000453	-0.000444	0.008527	0.004396	0.000111	-0.013839	0.003682
0.1945	0.006486	0.000671	0.009175	0.003729	0.004194	-0.0028	-0.003548	-0.00117
0.195	0.007976	0.00122	0.01717	-0.000885	0.004427	-0.004447	-0.021803	-0.001654
0.1955	0.008832	0.000864	0.023378	-0.004205	0.003948	-0.003846	-0.064602	0.001405
0.196	0.007651	0.000816	0.026192	-0.004788	0.001974	-0.003042	-0.119848	0.003572
0.1965	0.004851	0.001673	0.024207	-0.002513	-0.000547	-0.003274	-0.175528	0.003545
0.197	0.002988	0.002668	0.018698	-0.001293	-0.000977	-0.002585	-0.203094	0.001932
0.1975	0.002909	0.00247	0.011871	-0.003512	0.000306	-0.000441	-0.154352	-0.001202
0.198	0.003427	0.000956	0.005689	-0.0055	0.001189	0.000344	-0.010321	-0.00451
0.1985	0.004536	0.000772	0.002555	-0.003985	0.002016	-0.001351	0.165709	-0.005575
0.199	0.006436	0.003161	0.002891	-0.001258	0.003272	-0.002874	0.259121	-0.004011
0.1995	0.007051	0.005076	0.004301	0.000297	0.00317	-0.003218	0.213488	-0.001502
0.2	0.004625	0.004992	0.005412	0.002166	0.000938	-0.004042	0.090846	0.000136
0.2005	0.000754	0.005393	0.006663	0.004464	-0.000337	-0.004836	-0.003581	-0.000168
0.201	-0.002069	0.006459	0.007685	0.005573	0.001999	-0.004488	-0.037122	-0.001003
0.2015	-0.002843	0.005612	0.008306	0.005089	0.006178	-0.003752	-0.055817	-0.00055
0.202	-0.001474	0.002596	0.008792	0.002271	0.008044	-0.003316	-0.095719	0.000323
0.2025	0.000845	-0.000548	0.008016	-0.002104	0.005439	-0.003955	-0.140056	0.001195
0.203	0.00197	-0.001261	0.006242	-0.006484	0.00095	-0.005407	-0.161665	0.002549
0.2035	0.001041	0.000551	0.005447	-0.011928	-0.000911	-0.005185	-0.159969	0.003363
0.204	-0.00055	0.00146	0.005462	-0.01762	0.000463	-0.001673	-0.148871	0.002677
0.2045	-0.001193	-0.00049	0.005207	-0.018956	0.001129	0.004504	-0.140142	0.001277
0.205	-0.00132	-0.00417	0.004743	-0.013608	-0.000555	0.011084	-0.143489	0.000608
0.2055	-0.002173	-0.008117	0.004352	-0.003968	-0.001452	0.015495	-0.157654	0.001269
0.206	-0.004143	-0.010789	0.004164	0.003416	0.000108	0.017288	-0.152195	0.003524
0.2065	-0.006017	-0.009583	0.00391	-0.001792	0.00255	0.018151	-0.084675	0.00611
0.207	-0.005609	-0.003949	0.00419	-0.023801	0.003339	0.019538	0.04001	0.006339
0.2075	-0.003464	0.001182	0.006305	-0.050827	0.001087	0.020562	0.149029	0.004325
0.208	-0.002644	0.001467	0.00876	-0.06507	-0.001335	0.019079	0.176905	0.001751
0.2085	-0.004407	-0.00079	0.009496	-0.059862	-0.0012	0.014934	0.151164	-0.00079
0.209	-0.007234	-0.001466	0.009646	-0.042	-0.000765	0.010018	0.153139	-0.002366
0.2095	-0.007863	0.00026	0.009113	-0.020186	-0.001523	0.005889	0.191197	-0.002982
0.21	-0.004233	0.002559	0.003877	0.003832	-0.001497	0.002969	0.180458	-0.004112
0.2105	0.000314	0.003174	-0.006908	0.031423	-9.4e-05	0.000558	0.071801	-0.005106
0.211	0.001195	0.002098	-0.014943	0.059373	0.001493	-0.002024	-0.065853	-0.004226
0.2115	-0.000502	0.001605	-0.010495	0.080461	0.00276	-0.003845	-0.130901	-0.002833
0.212	-0.001901	0.002287	0.004344	0.091587	0.002907	-0.00389	-0.108918	-0.002798
0.2125	-0.002434	0.002533	0.016301	0.093933	0.001459	-0.002542	-0.069259	-0.003508
0.213	-0.001347	0.001172	0.016054	0.085867	-0.000214	-0.001009	-0.070828	-0.003972
0.2135	0.001335	-0.001905	0.008274	0.068433	-0.001468	-0.000775	-0.099671	-0.003763
0.214	0.00305	-0.004623	0.003322	0.051473	-0.002467	-0.001633	-0.090701	-0.003687
0.2145	0.001851	-0.004789	0.003895	0.044057	-0.001905	-0.001593	-0.003925	-0.005527
0.215	-0.001216	-0.003814	0.004949	0.046729	-0.000115	-0.000387	0.119282	-0.00846
0.2155	-0.004123	-0.003618	0.001169	0.052582	-0.000257	0.000424	0.190906	-0.008917
0.216	-0.004848	-0.003436	-0.008109	0.050133	-0.002246	0.000477	0.17406	-0.006564
0.2165	-0.002068	-0.002369	-0.018493	0.032513	-0.002669	0.000605	0.117302	-0.005
0.217	0.001768	-0.001271	-0.024822	0.00693	-0.001451	0.000449	0.079482	-0.004715
0.2175	0.002955	-0.000353	-0.022823	-0.012712	-0.000707	-0.001117	0.060131	-0.004356
0.218	0.001596	0.001235	-0.010062	-0.020555	-0.000378	-0.003233	0.027271	-0.00615
0.2185	-7.1e-05	0.002401	0.008364	-0.020163	0.000476	-0.004476	-0.021914	-0.01147
0.219	-0.00056	0.002068	0.024739	-0.017365	0.001488	-0.005282	-0.060783	-0.017071
0.2195	0.000581	0.001906	0.042247	-0.016644	0.001244	-0.005767	-0.074788	-0.019441
0.22	0.002283	0.00293	0.067508	-0.020486	-0.00033	-0.00505	-0.074487	-0.018309
0.2205	0.002937	0.004019	0.086028	-0.027338	-0.001514	-0.003888	-0.07391	-0.015383
0.221	0.001874	0.00457	0.06363	-0.031999	-0.001737	-0.003557	-0.077386	-0.012754
0.2215	-0.00063	0.005278	-0.01292	-0.033302	-0.001673	-0.003205	-0.08834	-0.012072
0.222	-0.003164	0.006242	-0.104322	-0.036653	-0.000988	-0.002656	-0.114914	-0.012389
0.2225	-0.004363	0.00599	-0.145718	-0.04427	0.000473	-0.002994	-0.158451	-0.010848
0.223	-0.004004	0.004208	-0.111031	-0.050136	0.001315	-0.002812	-0.203405	-0.007386
0.2235	-0.002528	0.003095	-0.039534	-0.048864	0.000958	-0.001292	-0.225584	-0.004577
0.224	-0.000494	0.003364	0.00774	-0.043273	0.001183	-0.001032	-0.20826	-0.003115
0.2245	0.001368	0.002299	0.007768	-0.03876	0.002867	-0.002849	-0.14734	-0.002199
0.225	0.00103	-0.001215	-0.014003	-0.036721	0.003582	-0.003838	-0.050864	-0.001999
0.2255	-0.002492	-0.003968	-0.024008	-0.036937	0.001264	-0.001816	0.049343	-0.002638
0.226	-0.006257	-0.004054	-0.01838	-0.040434	-0.002491	0.002437	0.098754	-0.002547
0.2265	-0.007479	-0.003943	-0.01493	-0.047902	-0.00455	0.006455	0.073918	-7.7e-05
0.227	-0.006894	-0.005459	-0.018261	-0.055276	-0.004042	0.008049	0.035194	0.003722
0.2275	-0.005539	-0.007121	-0.012613	-0.053275	-0.002751	0.007502	0.07153	0.006883
0.228	-0.00325	-0.007	0.009389	-0.037818	-0.001562	0.006914	0.181188	0.008565
0.2285	-0.000754	-0.004356	0.031183	-0.017018	0.000651	0.007603	0.272566	0.007948
0.229	0.000531	-0.000738	0.033087	-0.000266	0.003032	0.009328	0.291764	0.00625
0.2295	-0.000709	0.000302	0.016038	0.013766	0.002336	0.010336	0.267607	0.007111
0.23	-0.003971	-0.001848	-0.002489	0.030373	-0.000857	0.008949	0.226956	0.010567
0.2305	-0.005766	-0.004298	-0.009767	0.048436	-0.001785	0.005912	0.156582	0.012544
0.231	-0.00463	-0.006282	-0.00776	0.063246	0.00013	0.003629	0.062977	0.011417
0.2315	-0.003251	-0.008457	-0.004329	0.070373	0.001011	0.003527	-0.005992	0.009053
0.232	-0.003744	-0.009125	-0.003138	0.067158	0.000105	0.005104	-0.020358	0.007778
0.2325	-0.005447	-0.00688	-0.0034	0.055628	-0.000734	0.006689	3.4e-05	0.009036
0.233	-0.006257	-0.003349	-0.002906	0.041009	-0.000433	0.006318	0.021722	0.011287
0.2335	-0.004927	-0.000574	-0.000749	0.028492	0.001211	0.00286	0.031099	0.01078
0.234	-0.002462	0.001479	0.000597	0.020934	0.002797	-0.00252	0.03131	0.007174
0.2345	-0.000891	0.002852	-0.001157	0.017928	0.002775	-0.007289	0.028139	0.004276
0.235	-0.000978	0.0029	-0.003859	0.017205	0.001279	-0.010195	0.019895	0.003718
0.2355	-0.001285	0.002653	-0.00421	0.016613	-0.000754	-0.011333	-0.001051	0.003909
0.236	-0.000364	0.003324	-0.002238	0.015429	-0.001821	-0.011293	-0.030449	0.004672
0.2365	0.000865	0.004331	0.000218	0.011956	-0.000477	-0.01092	-0.044002	0.005849
0.237	0.000393	0.004014	0.001956	0.004688	0.002104	-0.010726	-0.019736	0.005691
0.2375	-0.001453	0.001326	0.002302	-0.002675	0.003337	-0.010816	0.036079	0.004553
0.238	-0.00154	-0.001568	0.001763	-0.005825	0.003346	-0.010102	0.0931	0.004056
0.2385	0.001202	-0.001666	0.002875	-0.005612	0.003343	-0.007747	0.122866	0.0043
0.239	0.003375	0.0006	0.008157	-0.004909	0.002434	-0.006254	0.117602	0.004976
0.2395	0.002797	0.003242	0.016572	-0.005273	-2.3e-05	-0.007629	0.089557	0.005505
0.24	0.001254	0.005198	0.023031	-0.006725	-0.002126	-0.008951	0.056881	0.004733
0.2405	-0.000623	0.006115	0.023533	-0.007564	-0.002298	-0.007354	0.031637	0.003387
0.241	-0.003077	0.005392	0.019904	-0.005846	-0.001589	-0.004935	0.017754	0.00347
0.2415	-0.003713	0.002066	0.016953	-0.002617	-0.00131	-0.004115	0.010338	0.003707
0.242	-0.001873	-0.00268	0.017022	-6.4e-05	-0.00163	-0.003398	-0.004122	0.001962
0.2425	-2.2e-05	-0.005659	0.018337	0.001314	-0.002181	-0.001294	-0.039181	0.000556
0.243	0.001376	-0.00558	0.017048	-6.6e-05	-0.002864	0.001483	-0.095825	0.002294
0.2435	0.003787	-0.003368	0.011605	-0.005478	-0.004472	0.004361	-0.15778	0.004597
0.244	0.006858	-0.000218	0.00408	-0.011702	-0.006803	0.006281	-0.200718	0.00379
0.2445	0.009001	0.002541	-0.003948	-0.015092	-0.008629	0.005537	-0.208518	0.001571
0.245	0.010063	0.004086	-0.014227	-0.01664	-0.00981	0.003157	-0.186259	0.000956
0.2455	0.009256	0.003772	-0.029527	-0.017901	-0.010334	0.001444	-0.160937	0.001551
0.246	0.005302	0.000818	-0.049075	-0.01693	-0.009933	5e-05	-0.162006	0.00142
0.2465	0.001194	-0.002224	-0.067252	-0.012784	-0.009254	-0.001625	-0.194032	-0.00099
0.247	0.000261	-0.001599	-0.079033	-0.006902	-0.008909	-0.002515	-0.23561	-0.003823
0.2475	0.000899	0.001178	-0.085908	-0.000172	-0.008062	-0.002787	-0.267255	-0.003091
0.248	0.00177	0.003076	-0.091904	0.005043	-0.005465	-0.004023	-0.27654	0.000311
0.2485	0.003875	0.003934	-0.093072	0.005989	-0.002451	-0.005951	-0.228116	0.002004
0.249	0.006119	0.003542	-0.077628	0.003392	-0.002246	-0.006554	-0.075855	0.00064
0.2495	0.006011	0.001839	-0.039097	-3.9e-05	-0.004999	-0.005435	0.154373	-0.001358
0.25	0.00342	0.000517	0.017538	-0.001638	-0.006695	-0.004281	0.330382	-0.000896
0.2505	0.00117	0.001477	0.08187	-0.000699	-0.004169	-0.003936	0.325938	0.001808
0.251	0.001688	0.004176	0.142565	0.000235	0.00023	-0.003357	0.161042	0.00383
0.2515	0.003634	0.005591	0.187177	-0.001794	0.002331	-0.001515	-0.017908	0.004208
0.252	0.004371	0.004353	0.200659	-0.007158	0.002223	0.00197	-0.087463	0.004109
0.2525	0.004003	0.002389	0.171065	-0.012478	0.001305	0.006563	-0.036164	0.00396
0.253	0.004183	0.00152	0.105676	-0.012762	-0.00079	0.010305	0.067046	0.003174
0.2535	0.004981	0.000677	0.033057	-0.007497	-0.003064	0.012073	0.132687	0.001597
0.254	0.005124	-0.00095	-0.019733	-0.002352	-0.003592	0.01316	0.099332	-8.2e-05
0.2545	0.004145	-0.000979	-0.046663	-0.001749	-0.003274	0.014105	-0.011615	-0.000261
0.255	0.002783	0.001071	-0.057918	-0.003885	-0.00426	0.012887	-0.098441	0.002054
0.2555	0.002036	0.002055	-0.061274	-0.005639	-0.005558	0.008887	-0.079602	0.004319
0.256	0.001938	0.001012	-0.054773	-0.00587	-0.004877	0.004083	0.028308	0.003755
0.2565	0.001245	-9.5e-05	-0.037462	-0.004846	-0.002047	-0.000157	0.151434	0.001626
0.257	-0.000206	0.000125	-0.017382	-0.004132	0.002356	-0.002899	0.233394	-0.00016
0.2575	-0.000976	0.000957	-0.004842	-0.003999	0.007153	-0.003064	0.250425	-0.001196
0.258	-0.001038	0.000484	-0.002609	-0.002907	0.010407	-0.001618	0.202634	-0.001145
0.2585	-0.001326	-0.000702	-0.004642	-0.000177	0.011662	0.000118	0.123964	-0.00075
0.259	-0.001537	0.000385	-0.003821	0.00239	0.011964	0.002561	0.069398	-0.002204
0.2595	-0.001753	0.003517	0.000685	0.00263	0.012165	0.004184	0.062667	-0.006035
0.26	-0.002327	0.00529	0.004729	0.001772	0.012976	0.002001	0.074362	-0.009663
0.2605	-0.002181	0.004388	0.005005	0.001494	0.015101	-0.002879	0.060366	-0.009958
0.261	-0.001378	0.001945	0.002046	0.001107	0.016996	-0.00653	-0.001095	-0.005885
0.2615	-0.001313	-0.000175	-0.001334	0.000473	0.016269	-0.006487	-0.097469	-0.000988
0.262	-0.001633	-0.000553	-0.003253	0.000243	0.013736	-0.002906	-0.168002	-0.001365
0.2625	-0.001727	-0.000498	-0.003945	0.000245	0.011384	0.000915	-0.138061	-0.007106
0.263	-0.001877	-0.002344	-0.004634	0.000234	0.009588	0.002177	-0.029125	-0.01133
0.2635	-0.001538	-0.006478	-0.005622	0.001199	0.007919	0.002506	0.020413	-0.010062
0.264	0.000181	-0.012009	-0.006087	0.003597	0.006021	0.003791	-0.070762	-0.006862
0.2645	0.002887	-0.016946	-0.00569	0.005529	0.004042	0.00466	-0.19332	-0.005541
0.265	0.004204	-0.018105	-0.003825	0.00522	0.002479	0.004138	-0.191406	-0.005636
0.2655	0.002087	-0.014258	6.4e-05	0.00332	0.002127	0.002474	-0.085861	-0.00644
0.266	-0.001971	-0.008846	0.003112	0.0029	0.002928	-0.000976	-0.038099	-0.006791
0.2665	-0.004844	-0.00606	0.002045	0.005688	0.003075	-0.004375	-0.123136	-0.004496
0.267	-0.005121	-0.005362	-0.001343	0.008228	0.001807	-0.004276	-0.245391	-0.001027
0.2675	-0.003121	-0.003394	-0.003293	0.007371	0.001409	-0.002306	-0.272625	-0.000201
0.268	-0.000823	0.000869	-0.003449	0.005769	0.003079	-0.001704	-0.167904	-0.002186
0.2685	-0.000492	0.005447	-0.003185	0.006121	0.003863	-0.001526	0.011709	-0.00409
0.269	-0.001633	0.008307	-0.002216	0.006654	0.002069	-0.00064	0.174124	-0.005001
0.2695	-0.002138	0.009027	-0.00076	0.005954	0.000501	-0.000403	0.241698	-0.00619
0.27	-0.001097	0.008121	-0.000633	0.004916	0.001447	-0.000843	0.201539	-0.00804
0.2705	0.000928	0.006705	-0.001915	0.003512	0.003299	0.000276	0.12353	-0.0091
0.271	0.001769	0.006046	-0.002739	0.001732	0.003102	0.003	0.089469	-0.006985
0.2715	-0.00027	0.006231	-0.00207	5.7e-05	0.000747	0.004626	0.10152	-0.002269
0.272	-0.003119	0.006765	-0.000887	-0.002173	-0.002076	0.004134	0.099228	5.9e-05
0.2725	-0.003412	0.007801	-0.001003	-0.003917	-0.005638	0.002536	0.055379	-0.002525
0.273	-0.001334	0.009014	-0.002277	-0.002816	-0.009484	0.000886	0.006712	-0.006494
0.2735	0.000208	0.008936	-0.003021	-0.000168	-0.010856	0.000352	-0.009585	-0.00796
0.274	0.000197	0.006524	-0.003127	0.000293	-0.00907	0.000772	-0.006864	-0.006731
0.2745	-0.000122	0.002423	-0.003778	-0.002878	-0.006029	0.000115	-0.018467	-0.004877
0.275	-0.000366	-0.001205	-0.005662	-0.007526	-0.004412	-0.001478	-0.047144	-0.003683
0.2755	-0.000834	-0.002153	-0.007739	-0.010116	-0.005788	-0.001304	-0.073702	-0.002611
0.276	-0.000648	-0.001103	-0.00787	-0.008531	-0.00823	0.000212	-0.091939	-0.001268
0.2765	0.001393	-0.001599	-0.005941	-0.003565	-0.009549	-0.000467	-0.104261	-0.000127
0.277	0.004369	-0.004761	-0.003273	0.000508	-0.009943	-0.003892	-0.100722	0.000491
0.2775	0.005599	-0.00745	-0.000505	-0.000686	-0.00954	-0.006591	-0.064319	-0.000136
0.278	0.003971	-0.007099	0.001419	-0.006481	-0.008774	-0.006193	0.017782	-0.002471
0.2785	0.000882	-0.004641	0.001198	-0.011865	-0.008972	-0.004937	0.147713	-0.004093
0.279	-0.000666	-0.002374	-0.000929	-0.013126	-0.009365	-0.005169	0.28992	-0.002311
0.2795	0.001495	-0.001573	-0.002782	-0.010877	-0.007786	-0.004893	0.361438	0.001671
0.28	0.004626	-0.002796	-0.003013	-0.006989	-0.00485	-0.002893	0.302846	0.005189
0.2805	0.004371	-0.006203	-0.002383	-0.001944	-0.003065	-0.000981	0.159753	0.006765
0.281	0.001512	-0.010505	-0.001285	0.002952	-0.002555	-5e-06	0.040303	0.006113
0.2815	-0.00026	-0.012871	0.000222	0.005648	-0.001868	-0.00018	-0.00777	0.004295
0.282	0.000158	-0.010421	0.001431	0.007059	-0.001436	-0.001122	-0.02407	0.002552
0.2825	0.001404	-0.003372	0.002362	0.009499	-0.001427	-0.000924	-0.048705	0.001476
0.283	0.002246	0.004234	0.002494	0.011738	4.1e-05	0.001069	-0.072976	0.001291
0.2835	0.002563	0.008401	0.000857	0.011587	0.002275	0.003364	-0.078321	0.001913
0.284	0.003095	0.008322	-0.000866	0.009698	0.002558	0.004798	-0.070777	0.00252
0.2845	0.004147	0.006314	-0.000875	0.006693	0.00124	0.005031	-0.06528	0.00203
0.285	0.00454	0.004553	-0.000155	0.003228	-0.00032	0.003069	-0.062843	0.00103
0.2855	0.003617	0.003846	2.8e-05	0.000849	-0.001739	-0.000851	-0.055953	0.000602
0.286	0.00218	0.005926	-0.000637	-8.3e-05	-0.001593	-0.003209	-0.045838	0.000138
0.2865	0.000455	0.01124	-0.001954	0.000941	0.001096	-0.001703	-0.040193	-0.000308
0.287	-0.001226	0.01623	-0.002842	0.00371	0.004444	0.001302	-0.040623	0.001283
0.2875	-0.001682	0.016325	-0.002879	0.005072	0.00559	0.002783	-0.043562	0.005199
0.288	-0.001393	0.010082	-0.003723	0.00355	0.004042	0.001748	-0.046712	0.008817
0.2885	-0.002457	0.000323	-0.006003	0.002302	0.001751	-0.001691	-0.049592	0.01042
0.289	-0.004526	-0.008607	-0.007218	0.002249	0.000922	-0.005368	-0.052191	0.00976
0.2895	-0.004763	-0.014553	-0.005465	0.000718	0.001883	-0.00616	-0.056242	0.007512
0.29	-0.003155	-0.017954	-0.002611	-0.001414	0.003357	-0.003502	-0.066865	0.006615
0.2905	-0.002222	-0.019441	-0.001197	-0.00288	0.005076	0.000608	-0.086058	0.008089
0.291	-0.002442	-0.019627	-0.000756	-0.00447	0.006776	0.00313	-0.102458	0.009579
0.2915	-0.002538	-0.019935	0.000343	-0.003306	0.006996	0.002385	-0.098164	0.010113
0.292	-0.000952	-0.020108	0.002507	0.002972	0.005714	0.000792	-0.071759	0.009335
0.2925	0.00267	-0.017341	0.004719	0.010626	0.004456	0.001539	-0.039976	0.007284
0.293	0.006035	-0.010207	0.005468	0.014229	0.003732	0.003652	-0.003723	0.006063
0.2935	0.007242	-0.000737	0.004588	0.011754	0.002846	0.004259	0.059731	0.00614
0.294	0.006358	0.008842	0.002881	0.00536	0.002136	0.003395	0.141043	0.005774
0.2945	0.003729	0.01699	0.00132	-0.000734	0.002377	0.003348	0.172571	0.004712
0.295	0.00144	0.020036	0.00064	-0.003298	0.002586	0.004481	0.106824	0.004304
0.2955	0.002206	0.015592	-0.000624	-0.002874	0.002459	0.004741	-0.006819	0.004918
0.296	0.00397	0.007616	-0.00383	-0.002199	0.003116	0.002411	-0.073574	0.005242
0.2965	0.002154	0.002578	-0.006499	-0.002142	0.003941	-0.001965	-0.062126	0.00472
0.297	-0.002771	0.002163	-0.005631	-0.002662	0.003676	-0.005209	-0.020134	0.004102
0.2975	-0.006262	0.001496	-0.001603	-0.003863	0.00297	-0.004205	0.002514	0.00341
0.298	-0.007156	-0.004568	0.002548	-0.003902	0.003201	1.3e-05	0.002096	0.002753
0.2985	-0.008426	-0.01299	0.004367	-0.001353	0.004038	0.003621	-0.006694	0.002743
0.299	-0.010864	-0.014414	0.004668	0.000966	0.004049	0.005264	-0.023572	0.002295
0.2995	-0.011935	-0.005435	0.004927	0.000206	0.002979	0.005746	-0.048807	0.000392
0.3	-0.010759	0.006897	0.004951	-0.001505	0.001605	0.005105	-0.065877	-0.001402
0.3005	-0.008847	0.014087	0.005352	-0.001463	0.000443	0.003858	-0.060384	-0.001851
0.301	-0.006982	0.014004	0.006333	-0.000227	-0.001404	0.003069	-0.04234	-0.001437
0.3015	-0.005448	0.010323	0.005651	0.00133	-0.004942	0.002637	-0.031253	-0.000239
0.302	-0.005306	0.007438	0.003221	0.003417	-0.008183	0.001994	-0.025914	0.001168
0.3025	-0.006266	0.005786	0.001913	0.005947	-0.008258	0.000915	-0.006062	0.000433
0.303	-0.006187	0.002636	0.002363	0.007756	-0.006007	-0.000494	0.038113	-0.003081
0.3035	-0.004567	-0.002617	0.003393	0.008303	-0.004514	-0.0026	0.087498	-0.005515
0.304	-0.002878	-0.006497	0.005035	0.008601	-0.004797	-0.005655	0.105187	-0.003231
0.3045	-0.001436	-0.005235	0.00676	0.007622	-0.0056	-0.007435	0.069374	0.000875
0.305	0.000126	0.000512	0.006275	0.003574	-0.005841	-0.006343	0.001465	0.001305
0.3055	0.000867	0.005666	0.003127	-0.001102	-0.006105	-0.004816	-0.044299	-0.001771
0.306	2.6e-05	0.006766	0.000375	-0.004185	-0.007638	-0.00457	-0.031619	-0.004202
0.3065	-0.001481	0.005277	0.00014	-0.008028	-0.010036	-0.004095	0.01954	-0.004436
0.307	-0.002341	0.003928	0.000813	-0.013245	-0.011019	-0.003338	0.057473	-0.003968
0.3075	-0.002276	0.00343	0.000502	-0.015531	-0.008522	-0.003774	0.05688	-0.003883
0.308	-0.002026	0.003524	-0.000374	-0.01317	-0.003789	-0.004056	0.036495	-0.003799
0.3085	-0.002293	0.004449	-0.000858	-0.009558	-0.001329	-0.002654	0.023345	-0.002768
0.309	-0.002878	0.005716	-0.000892	-0.006954	-0.002591	-0.001317	0.021164	-0.000761
0.3095	-0.003005	0.005861	-2.8e-05	-0.005394	-0.004082	-0.001732	0.019687	0.000352
0.31	-0.002406	0.004658	0.002445	-0.004273	-0.003544	-0.003076	0.015543	-0.000718
0.3105	-0.001746	0.003571	0.004886	-0.002349	-0.002134	-0.003326	0.011884	-0.002708
0.311	-0.001118	0.002978	0.004722	-0.000261	-0.001608	-0.001781	0.009986	-0.003693
0.3115	-6.1e-05	0.0018	0.002185	-0.000162	-0.001756	0.000352	0.009075	-0.003434
0.312	0.000353	0.000347	-0.000523	-0.000816	-0.001248	0.001843	0.008882	-0.003137
0.3125	-5.9e-05	-0.0003	-0.002204	0.000437	-0.000601	0.002646	0.009419	-0.003641
0.313	0.00107	0.000318	-0.003912	0.000667	-0.00058	0.003981	0.009007	-0.005428
0.3135	0.003947	0.001297	-0.006834	-0.002684	-0.000991	0.005463	0.004942	-0.007899
0.314	0.005836	0.000148	-0.009364	-0.0051	-0.002274	0.004985	-0.002878	-0.008489
0.3145	0.005811	-0.002696	-0.009102	-0.003949	-0.00351	0.003488	-0.010655	-0.006333
0.315	0.005418	-0.003755	-0.006201	-0.000972	-0.0025	0.002605	-0.013539	-0.003267
0.3155	0.005296	-0.002009	-0.003273	0.002801	0.000805	0.001329	-0.009804	-0.000931
0.316	0.004546	0.000375	-0.002999	0.004474	0.004546	-0.000225	-0.002354	-0.000589
0.3165	0.003274	0.000122	-0.005046	0.001688	0.006387	-0.000765	0.00556	-0.001853
0.317	0.002773	-0.003699	-0.006316	-0.002538	0.005298	-0.000538	0.013939	-0.002221
0.3175	0.003287	-0.007525	-0.005133	-0.005505	0.003431	-0.000461	0.022485	-0.000869
0.318	0.003908	-0.008412	-0.00325	-0.009164	0.003051	-0.000754	0.028259	0.00066
0.3185	0.003964	-0.008021	-0.002596	-0.015561	0.003656	-0.001534	0.028288	0.001671
0.319	0.003444	-0.007935	-0.002267	-0.024689	0.004879	-0.002841	0.022064	0.002474
0.3195	0.002479	-0.006887	-0.000714	-0.037251	0.007286	-0.003096	0.014414	0.002386
0.32	0.000965	-0.005256	0.001455	-0.052108	0.009067	-0.001688	0.014854	0.001236
0.3205	-0.000213	-0.004847	0.002702	-0.062997	0.007811	-0.000473	0.025041	0.000901
0.321	0.001221	-0.004562	0.002836	-0.064899	0.005153	-0.000153	0.029127	0.002642
0.3215	0.005607	-0.002777	0.002364	-0.060321	0.003982	-0.000646	0.00953	0.005336
0.322	0.009071	-0.000636	0.001225	-0.054531	0.004152	-0.002206	-0.029115	0.006949
0.3225	0.008116	0.000243	0.000158	-0.047329	0.004826	-0.00353	-0.062279	0.005754
0.323	0.004768	0.000199	-1.7e-05	-0.033136	0.005567	-0.002542	-0.076057	0.002692
0.3235	0.002989	-5.4e-05	-0.000562	-0.009195	0.005196	0.000405	-0.089181	0.002308
0.324	0.003198	-0.000496	-0.002433	0.0193	0.003807	0.002775	-0.131701	0.005817
0.3245	0.00323	-0.000772	-0.004232	0.045716	0.002308	0.003753	-0.204278	0.008498
0.325	0.001528	-0.000615	-0.003743	0.06756	0.000342	0.004232	-0.270395	0.007597
0.3255	-0.001219	0.000258	-0.00055	0.08272	-0.002015	0.004141	-0.283262	0.004738
0.326	-0.003517	0.001787	0.002645	0.090209	-0.003949	0.003424	-0.212604	0.002465
0.3265	-0.004535	0.002667	0.003712	0.092155	-0.00458	0.002929	-0.062944	0.002115
0.327	-0.002854	0.001984	0.003514	0.088835	-0.002951	0.002832	0.114577	0.002261
0.3275	0.00137	0.000374	0.002524	0.078378	-0.000767	0.00191	0.245265	0.001625
0.328	0.004448	-0.000429	0.000901	0.061409	-0.000656	-0.000501	0.286719	0.000917
0.3285	0.004176	0.00086	0.000408	0.041749	-0.001668	-0.002192	0.25226	-0.000404
0.329	0.002626	0.002786	0.001365	0.025439	-0.002276	-0.000811	0.17818	-0.002718
0.3295	0.001986	0.00243	0.001623	0.018758	-0.00256	0.001859	0.091222	-0.004279
0.33	0.002303	0.000844	7.7e-05	0.021528	-0.001786	0.00259	0.010077	-0.005293
0.3305	0.002889	0.001706	-0.000786	0.025769	0.000222	0.001981	-0.048567	-0.007329
0.331	0.002314	0.003637	0.00192	0.025659	0.001773	0.002304	-0.071615	-0.008194
0.3315	-0.000461	0.002989	0.006172	0.020901	0.002044	0.00274	-0.047784	-0.005448
0.332	-0.003759	0.000892	0.008	0.011802	0.0018	0.001549	0.016212	-0.00163
0.3325	-0.005606	0.000277	0.006767	0.000356	0.001738	-0.00024	0.076283	0.000277
0.333	-0.006212	0.000961	0.004358	-0.009268	0.002067	-0.000402	0.088051	0.000147
0.3335	-0.005598	0.001806	0.003219	-0.015088	0.002378	0.001254	0.062094	-0.002273
0.334	-0.003505	0.003688	0.003778	-0.01783	0.0019	0.002591	0.044821	-0.006232
0.3345	-0.001653	0.005736	0.00404	-0.018733	0.000497	0.001925	0.057269	-0.008357
0.335	-0.001536	0.004575	0.003268	-0.019343	-0.000992	0.00058	0.084081	-0.007394
0.3355	-0.002689	0.000428	0.002054	-0.020072	-0.001441	0.000893	0.10327	-0.005615
0.336	-0.004362	-0.002851	0.00019	-0.01916	-0.001353	0.001944	0.100609	-0.004152
0.3365	-0.004871	-0.002895	-0.002701	-0.017393	-0.002005	0.001435	0.070833	-0.003364
0.337	-0.002867	-0.000721	-0.006416	-0.018292	-0.002875	0.000375	0.024064	-0.004687
0.3375	-0.000523	0.0003	-0.009901	-0.020412	-0.003707	0.000901	-0.017039	-0.006809
0.338	8.1e-05	-0.002156	-0.011414	-0.019144	-0.00501	0.002292	-0.036321	-0.006603
0.3385	0.000103	-0.005775	-0.009949	-0.015424	-0.005601	0.002564	-0.037044	-0.004461
0.339	0.001118	-0.005925	-0.00563	-0.014126	-0.004439	0.001685	-0.035872	-0.003002
0.3395	0.002633	-0.002335	0.000625	-0.016121	-0.002149	0.000713	-0.047497	-0.002968
0.34	0.002775	0.001187	0.005819	-0.017075	0.00035	-0.000789	-0.071279	-0.002831
0.3405	0.001894	0.002408	0.005682	-0.014423	0.001476	-0.002744	-0.088277	-0.001985
0.341	0.001738	0.001148	-0.000763	-0.010931	-1.7e-05	-0.003333	-0.073582	-0.002393
0.3415	0.001713	-0.001757	-0.008882	-0.009032	-0.002106	-0.002768	-0.021205	-0.004845
0.342	0.000869	-0.004588	-0.012441	-0.007095	-0.002041	-0.002569	0.039409	-0.006543
0.3425	-0.000427	-0.006121	-0.009316	-0.003726	-0.000699	-0.002819	0.064625	-0.005407
0.343	-0.001018	-0.005545	-0.002254	-0.001302	-0.000419	-0.003917	0.040543	-0.003337
0.3435	0.000104	-0.003282	0.003975	-0.001733	-0.001056	-0.006094	-0.004807	-0.002498
0.344	0.001397	-0.000838	0.00661	-0.003318	-0.00069	-0.007065	-0.034565	-0.002915
0.3445	0.000556	0.001409	0.006651	-0.004175	0.001306	-0.005207	-0.037406	-0.003369
0.345	-0.001394	0.002638	0.005376	-0.003964	0.003384	-0.002946	-0.027444	-0.002079
0.3455	-0.001504	0.001442	0.003323	-0.003797	0.004006	-0.002901	-0.022265	-9.3e-05
0.346	0.000303	-0.001047	0.002503	-0.005003	0.003333	-0.004281	-0.029127	-0.000386
0.3465	0.000994	-0.00168	0.004502	-0.007178	0.001982	-0.004775	-0.045758	-0.00219
0.347	-0.001002	0.000609	0.007456	-0.009372	2.1e-05	-0.003535	-0.06462	-0.00215
0.3475	-0.004305	0.002629	0.007985	-0.010461	-0.001509	-0.001494	-0.074882	0.000199
0.348	-0.006949	0.001506	0.006207	-0.009137	-0.001023	0.00054	-0.065555	0.001551
0.3485	-0.007242	-0.001213	0.004611	-0.005217	0.00033	0.001834	-0.034103	0.000154
0.349	-0.004494	-0.002369	0.003365	-0.00066	0.000643	0.002371	0.004177	-0.001466
0.3495	-0.001193	-0.000554	0.002173	0.001397	0.000391	0.003473	0.021023	-0.000869
0.35	-0.000823	0.00239	0.001702	0.000296	-0.000627	0.004779	0.00128	0.001601
0.3505	-0.002516	0.003709	0.001259	-0.001706	-0.00248	0.005479	-0.035621	0.003631
0.351	-0.00288	0.003468	-0.000207	-0.001798	-0.002437	0.006388	-0.053928	0.004155
0.3515	-0.001781	0.0025	-0.002271	0.001278	0.000729	0.005989	-0.041615	0.005222
0.352	-0.001282	0.001115	-0.003282	0.004926	0.004988	0.001721	-0.014535	0.006867
0.3525	-0.001258	0.000274	-0.001596	0.0057	0.007443	-0.003964	0.016025	0.006266
0.353	0.000229	0.00063	0.001521	0.004567	0.006433	-0.006437	0.050993	0.003748
0.3535	0.003313	0.002095	0.002111	0.004349	0.004141	-0.005867	0.07871	0.002198
0.354	0.005773	0.003544	-0.000719	0.004225	0.004007	-0.005367	0.075373	0.002455
0.3545	0.005627	0.003148	-0.003386	0.002599	0.005322	-0.005685	0.038594	0.003539
0.355	0.003225	0.001062	-0.0031	0.001208	0.004885	-0.006021	-0.002824	0.004392
0.3555	0.002005	-0.000241	-0.000788	3.7e-05	0.002533	-0.005424	-0.022092	0.004372
0.356	0.004969	-0.000471	0.001117	-0.003552	0.001129	-0.002949	-0.020681	0.004482
0.3565	0.010236	-0.002027	0.001778	-0.007594	0.002223	0.000136	-0.015374	0.006099
0.357	0.013436	-0.0042	0.001814	-0.007745	0.00441	0.001799	-0.015389	0.007986
0.3575	0.012114	-0.003841	0.001497	-0.004725	0.005377	0.002154	-0.018119	0.007868
0.358	0.007069	-0.001793	0.000372	-0.001672	0.004509	0.00163	-0.017726	0.005774
0.3585	0.001589	-0.001009	-0.001758	0.001159	0.003123	0.000667	-0.013731	0.003438
0.359	-0.000963	-0.000968	-0.003735	0.003841	0.002345	0.001245	-0.011444	0.001893
0.3595	0.000222	-0.000609	-0.004218	0.004563	0.001679	0.002914	-0.013976	0.00229
0.36	0.002556	-0.000893	-0.004293	0.002814	0.000654	0.002362	-0.016687	0.005857
0.3605	0.003223	-0.001256	-0.005868	0.000549	0.000593	0.000455	-0.013117	0.01001
0.361	0.002307	-0.00071	-0.007751	0.000767	0.002186	0.000721	-0.005471	0.010759
0.3615	0.001432	-0.000825	-0.007722	0.004284	0.0033	0.002471	-0.003126	0.008353
0.362	0.00129	-0.002577	-0.006875	0.007283	0.002076	0.002818	-0.011557	0.00516
0.3625	0.000909	-0.004232	-0.007172	0.006626	0.00023	0.001594	-0.028916	0.002767
0.363	-0.000949	-0.00407	-0.006749	0.004135	0.00049	0.001117	-0.049767	0.002452
0.3635	-0.003864	-0.002433	-0.003233	0.002189	0.002377	0.00289	-0.062598	0.004095
0.364	-0.005925	-0.001104	0.001024	0.001255	0.002922	0.005398	-0.04449	0.005313
0.3645	-0.005915	-0.001968	0.002397	0.001645	0.00091	0.005915	0.024905	0.00373
0.365	-0.004583	-0.005916	0.000372	0.002919	-0.001309	0.004462	0.129013	0.000594
0.3655	-0.003429	-0.01114	-0.003164	0.003295	-0.001529	0.003058	0.206088	-0.000369
0.366	-0.003217	-0.01269	-0.005429	0.001262	-0.000459	0.002048	0.202172	0.001259
0.3665	-0.003741	-0.00713	-0.00515	-0.00308	0.000616	0.001314	0.13062	0.002243
0.367	-0.004247	0.002206	-0.003732	-0.007561	0.000783	0.001389	0.053599	0.001437
0.3675	-0.004032	0.008665	-0.002505	-0.009879	-0.000844	0.001143	0.007642	0.000785
0.368	-0.0034	0.009922	-0.001152	-0.010882	-0.003446	-0.000514	-0.024272	0.000283
0.3685	-0.003053	0.0078	0.000491	-0.013285	-0.0055	-0.00171	-0.068565	-0.001803
0.369	-0.002341	0.004982	0.002184	-0.019824	-0.00694	-0.000242	-0.118304	-0.003575
0.3695	-0.000559	0.004383	0.004793	-0.033354	-0.007732	0.002794	-0.141636	-0.002275
0.37	0.000986	0.005717	0.008976	-0.051387	-0.007416	0.004144	-0.117935	4.7e-05
0.3705	0.000775	0.004928	0.012514	-0.065588	-0.006617	0.002955	-0.057332	0.000692
0.371	-0.000941	0.001053	0.012231	-0.072001	-0.00604	0.001688	0.010664	0.00016
0.3715	-0.002549	-0.001628	0.008414	-0.073615	-0.005164	0.001661	0.059185	-0.001066
0.372	-0.002295	-0.00051	0.004372	-0.073004	-0.00424	0.001531	0.075575	-0.002772
0.3725	-2.1e-05	0.00165	0.003109	-0.068004	-0.004995	0.000525	0.062369	-0.003287
0.373	0.003206	0.00193	0.005657	-0.054659	-0.006367	-0.000944	0.035176	-0.002766
0.3735	0.005274	0.000956	0.009636	-0.031411	-0.00492	-0.003404	0.014042	-0.00305
0.374	0.003689	0.000513	0.010901	-0.000651	-0.00157	-0.00671	0.007687	-0.003175
0.3745	0.00055	0.000649	0.008811	0.031555	-0.000191	-0.008369	0.007761	-0.002676
0.375	0.000428	-0.000322	0.006608	0.05994	-0.00134	-0.007751	0.001968	-0.003497
0.3755	0.002316	-0.00158	0.006211	0.081595	-0.003067	-0.007077	-0.010078	-0.004733
0.376	0.002206	0.000595	0.006498	0.093045	-0.004136	-0.00671	-0.017048	-0.004373
0.3765	-0.000126	0.005762	0.006619	0.093762	-0.004817	-0.005804	-0.011865	-0.003622
0.377	-0.003006	0.008366	0.006819	0.089071	-0.006083	-0.005382	-0.002463	-0.003811
0.3775	-0.005872	0.005429	0.00594	0.083822	-0.007821	-0.005845	-0.002328	-0.004419
0.378	-0.007538	0.000705	0.003027	0.077425	-0.008328	-0.005516	-0.017307	-0.004931
0.3785	-0.007219	-0.000289	-0.000177	0.067335	-0.006572	-0.004426	-0.046585	-0.003784
0.379	-0.005667	0.003236	-0.002183	0.052771	-0.003473	-0.004086	-0.085692	-0.00037
0.3795	-0.00253	0.007858	-0.002854	0.036158	-0.000428	-0.003323	-0.118184	0.001483
0.38	0.001752	0.009942	-0.002296	0.025029	0.001074	-0.000383	-0.111942	-0.000113
0.3805	0.00375	0.008868	-0.001986	0.025204	0.001081	0.003632	-0.04599	-0.002313
0.381	0.001351	0.006966	-0.003317	0.03251	0.002037	0.007327	0.05034	-0.003596
0.3815	-0.002744	0.005373	-0.00601	0.039076	0.004913	0.010817	0.109107	-0.003937
0.382	-0.003945	0.002995	-0.009226	0.041	0.007132	0.013409	0.092211	-0.003734
0.3825	-0.001764	-0.000262	-0.01194	0.036243	0.005111	0.01274	0.028506	-0.004709
0.383	0.000599	-0.00232	-0.013457	0.022904	-0.000354	0.008284	-0.029089	-0.006848
0.3835	0.001519	-0.001662	-0.013286	0.003099	-0.004068	0.003584	-0.057939	-0.006993
0.384	0.001632	0.000555	-0.010521	-0.015723	-0.003701	0.001593	-0.064668	-0.004018
0.3845	0.001873	0.002312	-0.006284	-0.026313	-0.001187	0.000922	-0.059966	-0.002008
0.385	0.002012	0.002741	-0.004519	-0.026626	0.000811	-0.00043	-0.053049	-0.003041
0.3855	0.001018	0.002477	-0.007048	-0.021171	0.000643	-0.001775	-0.049861	-0.003551
0.386	-0.000648	0.002815	-0.010571	-0.017442	-0.000505	-0.001384	-0.042477	-0.001659
0.3865	-0.001193	0.003845	-0.011058	-0.018121	9.8e-05	0.000281	-0.014549	0.000854
0.387	0.000103	0.004468	-0.009045	-0.020445	0.002469	0.000358	0.032898	0.002597
0.3875	0.001794	0.003858	-0.007571	-0.022125	0.003668	-0.001373	0.074393	0.002677
0.388	0.001725	0.001908	-0.00652	-0.022311	0.001883	-0.001607	0.0882	0.000848
0.3885	-0.000303	-0.000577	-0.003988	-0.020263	-0.001193	0.00016	0.079247	-0.000435
0.389	-0.002168	-0.0033	-0.000982	-0.017059	-0.002264	0.001353	0.067303	0.000867
0.3895	-0.002231	-0.008244	0.000232	-0.015555	-7.5e-05	0.001011	0.062659	0.002887
0.39	-0.00087	-0.015787	-0.000984	-0.01664	0.003098	-0.00056	0.059592	0.003628
0.3905	0.000563	-0.02056	-0.004073	-0.017733	0.004264	-0.0027	0.05008	0.00363
0.391	0.000336	-0.01681	-0.007947	-0.016618	0.003395	-0.003594	0.035977	0.003114
0.3915	-0.001783	-0.005526	-0.010582	-0.015164	0.003047	-0.001857	0.02409	0.001018
0.392	-0.00334	0.006924	-0.008928	-0.015987	0.004429	0.001042	0.016235	-0.001424
0.3925	-0.002648	0.015121	-0.002151	-0.016969	0.00556	0.00146	0.010073	-0.00073
0.393	-0.000647	0.019211	0.006199	-0.015435	0.004843	-0.001131	0.005271	0.00236
0.3935	0.000773	0.022613	0.011293	-0.013554	0.003617	-0.002725	0.002903	0.003146
0.394	0.000503	0.025203	0.01076	-0.013217	0.002866	-0.001313	0.001444	0.001403
0.3945	-0.000678	0.022277	0.006189	-0.012818	0.001182	0.0012	-0.001738	0.001366
0.395	-0.001268	0.010067	0.001554	-0.011426	-0.002294	0.00292	-0.006357	0.003516
0.3955	-0.000661	-0.009499	0.000433	-0.010084	-0.005644	0.00297	-0.009667	0.004496
0.396	0.000597	-0.030477	0.003818	-0.00915	-0.006287	0.001641	-0.01015	0.004116
0.3965	0.001488	-0.047497	0.007855	-0.007735	-0.004117	0.000325	-0.008671	0.004499
0.397	0.001469	-0.055205	0.0072	-0.005854	-0.001307	8e-05	-0.007173	0.005411
0.3975	0.000554	-0.049893	0.002967	-0.004543	-0.000168	0.000839	-0.006774	0.005813
0.398	0.000262	-0.035823	0.001678	-0.004379	-0.000362	0.001108	-0.006115	0.004863
0.3985	0.002392	-0.023229	0.006289	-0.005012	0.000809	0.000118	-0.004495	0.002422
0.399	0.005101	-0.019026	0.012914	-0.005294	0.003331	-0.000718	-0.004394	0.001118
0.3995	0.005362	-0.020239	0.015317	-0.004832	0.005375	-0.000769	-0.007468	0.002288
0.4	0.003874	-0.016551	0.011957	-0.004552	0.00708	-0.000978	-0.012784	0.002383
0.4005	0.002206	-0.003258	0.007717	-0.004358	0.006938	-0.001715	-0.018228	-0.00116
0.401	-0.000269	0.011804	0.006028	-0.00223	0.002151	-0.002455	-0.020511	-0.00498
0.4015	-0.002744	0.019671	0.004633	0.00177	-0.004807	-0.001835	-0.018294	-0.005202
0.402	-0.002727	0.021171	0.002531	0.003906	-0.008508	0.000235	-0.015632	-0.003466
0.4025	-0.001022	0.021244	0.002308	0.002808	-0.007794	0.000468	-0.016966	-0.003173
0.403	-0.00048	0.020533	0.004595	0.000533	-0.005229	-0.00188	-0.020683	-0.004387
0.4035	-0.001147	0.016878	0.007313	-0.001757	-0.003799	-0.002926	-0.021688	-0.005172
0.404	-0.001348	0.011104	0.008177	-0.002973	-0.005052	-0.001465	-0.017377	-0.004286
0.4045	-0.000572	0.007839	0.006574	-0.002277	-0.006418	0.000799	-0.008164	-0.002695
0.405	0.001024	0.009133	0.004515	-0.000972	-0.004618	0.002731	0.006258	-0.002337
0.4055	0.00319	0.011037	0.003771	7.4e-05	-0.001689	0.003055	0.025052	-0.002496
0.406	0.004611	0.009642	0.003285	0.001594	-0.002146	0.001539	0.039981	-0.000976
0.4065	0.004052	0.006317	0.00124	0.002749	-0.006412	0.000155	0.040795	0.002068
0.407	0.002146	0.004136	-0.002142	0.002321	-0.009795	0.000204	0.027392	0.005625
0.4075	-0.000167	0.003614	-0.004855	0.002142	-0.006519	0.000407	0.00865	0.009214
0.408	-0.001802	0.003927	-0.005374	0.002943	0.006341	-0.000318	-0.007077	0.010546
0.4085	-0.001137	0.003994	-0.004384	0.003433	0.023426	-0.00139	-0.015891	0.008954
0.409	0.001359	0.003176	-0.003602	0.005076	0.03106	-0.002435	-0.017953	0.007938
0.4095	0.003277	0.002502	-0.003786	0.007644	0.023647	-0.00316	-0.015204	0.008949
0.41	0.002921	0.002535	-0.005095	0.006986	0.011919	-0.003093	-0.009995	0.010688
0.4105	0.000864	0.002678	-0.007055	0.002616	0.007006	-0.002892	-0.005487	0.011895
0.411	-0.000405	0.003305	-0.008253	-0.002043	0.008271	-0.002724	-0.003714	0.010118
0.4115	0.00026	0.005179	-0.007817	-0.004442	0.009387	-0.001679	-0.004444	0.005077
0.412	0.001699	0.007335	-0.006037	-0.003343	0.008273	-0.000843	-0.007189	0.000236
0.4125	0.003064	0.008123	-0.0038	5.2e-05	0.008218	-0.001516	-0.011657	-0.003382
0.413	0.004216	0.007789	-0.002433	0.001877	0.011569	-0.001858	-0.015347	-0.008096
0.4135	0.004537	0.006304	-0.002825	0.000649	0.015582	-0.000267	-0.012738	-0.013317
0.414	0.00379	0.00228	-0.004136	-0.000889	0.016423	0.001629	-0.000119	-0.01555
0.4145	0.003117	-0.00224	-0.004852	-0.000788	0.013796	0.00209	0.018152	-0.014211
0.415	0.00311	-0.002967	-0.004807	0.000613	0.005284	0.001529	0.030199	-0.011519
0.4155	0.002631	8.5e-05	-0.004701	0.002717	-0.014824	0.00056	0.026922	-0.00928
0.416	0.001705	0.003156	-0.005066	0.003665	-0.040653	-0.000229	0.012396	-0.008186
0.4165	0.00218	0.003303	-0.006223	0.001648	-0.051282	0.000551	-0.00075	-0.008106
0.417	0.003741	0.000396	-0.007399	-0.000826	-0.033678	0.002482	-0.005654	-0.008354
0.4175	0.004151	-0.002628	-0.006535	-0.000349	-0.001286	0.002837	-0.004953	-0.007477
0.418	0.004187	-0.002054	-0.002355	0.000688	0.018423	0.000914	-0.003082	-0.005801
0.4185	0.005969	0.001152	0.003239	-0.000874	0.011068	-0.001066	-0.001866	-0.006033
0.419	0.007407	-0.000131	0.005765	-0.004417	-0.012818	-0.001902	-0.001917	-0.00798
0.4195	0.004745	-0.009101	0.003433	-0.010772	-0.028554	-0.002075	-0.003517	-0.008542
0.42	-0.000789	-0.018596	-0.000466	-0.01998	-0.02087	-0.001257	-0.005285	-0.006415
0.4205	-0.004005	-0.021674	-0.002385	-0.027659	0.000319	0.000639	-0.004203	-0.002795
0.421	-0.003308	-0.019005	-0.002018	-0.030851	0.010889	0.001438	0.00076	-0.000349
0.4215	-0.002501	-0.011847	-0.000978	-0.031333	-0.000391	0.000482	0.007227	-0.00093
0.422	-0.004194	0.002484	-0.000343	-0.032074	-0.019217	0.001101	0.011896	-0.003088
0.4225	-0.006799	0.022272	5.2e-05	-0.030937	-0.023131	0.003381	0.012026	-0.003563
0.423	-0.008019	0.034989	0.000788	-0.022765	-0.008962	0.002868	0.00638	-0.00106
0.4235	-0.006864	0.030141	0.001961	-0.00908	0.00555	0.000106	-0.003132	0.002288
0.424	-0.00391	0.012821	0.002248	0.004404	0.005588	-0.001415	-0.011869	0.004798
0.4245	-0.001278	-0.005421	0.000954	0.015927	-0.004337	-0.002589	-0.016024	0.007606
0.425	-0.000331	-0.019546	0.00048	0.026062	-0.009186	-0.004372	-0.015142	0.010561
0.4255	-4.2e-05	-0.028355	0.002273	0.034019	-0.004006	-0.004827	-0.011005	0.011042
0.426	0.000552	-0.030189	0.004041	0.038749	0.001589	-0.003242	-0.006033	0.00841
0.4265	0.000714	-0.025695	0.004308	0.041	0.001287	-0.001636	-0.002351	0.004642
0.427	0.000184	-0.018987	0.004256	0.042176	0.00323	-0.001545	-0.001015	0.000298
0.4275	-0.000962	-0.014631	0.004993	0.044125	0.014129	-0.001999	-0.001999	-0.003941
0.428	-0.003252	-0.012187	0.006648	0.047767	0.025247	-0.001936	-0.003478	-0.004894
0.4285	-0.005034	-0.005131	0.008588	0.048084	0.026464	-0.001736	-0.002527	-0.003264
0.429	-0.003968	0.00973	0.010036	0.038841	0.021799	-0.001268	0.000599	-0.003864
0.4295	-0.002273	0.02482	0.010668	0.022103	0.022339	0.000907	0.002306	-0.006792
0.43	-0.004073	0.029398	0.010173	0.005525	0.031106	0.004311	0.001187	-0.008343
0.4305	-0.008023	0.023	0.008336	-0.00513	0.040601	0.005582	-0.001699	-0.007672
0.431	-0.009001	0.014859	0.005256	-0.008073	0.043019	0.004228	-0.006876	-0.00619
0.4315	-0.007025	0.011083	0.001189	-0.005844	0.038391	0.004139	-0.0153	-0.00451
0.432	-0.006456	0.010253	-0.002963	-0.003846	0.032684	0.006304	-0.026123	-0.002594
0.4325	-0.007353	0.008524	-0.0054	-0.004411	0.026084	0.007119	-0.037426	3.3e-05
0.433	-0.006701	0.004977	-0.005482	-0.005231	0.007175	0.00532	-0.045179	0.003089
0.4335	-0.005081	0.002284	-0.005057	-0.004845	-0.029724	0.003386	-0.043944	0.004075
0.434	-0.00505	0.000953	-0.005251	-0.004175	-0.066591	0.002069	-0.035338	0.002206
0.4345	-0.006034	-0.001002	-0.005036	-0.004602	-0.075907	-0.000401	-0.032618	0.000424
0.435	-0.005494	-0.00276	-0.003983	-0.006996	-0.052554	-0.004135	-0.048655	0.000156
0.4355	-0.003551	-0.002871	-0.003093	-0.009204	-0.020143	-0.00611	-0.076092	-8.4e-05
0.436	-0.002495	-0.003065	-0.003438	-0.007283	-0.002692	-0.003451	-0.078306	-0.000199
0.4365	-0.002944	-0.004342	-0.004942	-0.002883	-0.001004	0.001977	-0.010692	0.000848
0.437	-0.003255	-0.004693	-0.006502	-0.002234	-0.002744	0.005106	0.127315	0.001703
0.4375	-0.002395	-0.003316	-0.006991	-0.005076	-0.002595	0.00397	0.259395	0.001362
0.438	-0.00145	-0.001483	-0.005589	-0.005988	-0.002097	0.001684	0.283249	0.000302
0.4385	-0.001172	-0.000344	-0.003195	-0.004103	-0.001682	0.002472	0.178122	-0.001461
0.439	-0.001064	-0.001065	-0.002624	-0.001314	-0.001604	0.00566	0.032883	-0.002102
0.4395	-0.000949	-0.003147	-0.003979	0.00113	-0.002587	0.006617	-0.059346	0.000499
0.44	-0.001041	-0.003834	-0.003904	0.001154	-0.00362	0.004357	-0.095039	0.004723
0.4405	-0.001221	-0.002304	-0.001464	-0.002131	-0.003124	0.001937	-0.116823	0.007961
0.441	-0.000929	-0.000425	0.00107	-0.006482	-0.001905	0.000949	-0.127829	0.009021
0.4415	-0.000511	0.000277	0.002022	-0.008694	-0.002969	0.000771	-0.103079	0.007837
0.442	-0.000897	-9.7e-05	0.001279	-0.008125	-0.006438	0.00094	-0.048768	0.006264
0.4425	-0.001249	-0.000639	-9e-06	-0.007536	-0.00805	0.001511	0.005809	0.00655
0.443	-0.00019	-0.001265	-0.000622	-0.009507	-0.005611	0.001166	0.053679	0.007233
0.4435	0.001332	-0.002621	-0.000737	-0.01285	-0.001988	-0.002616	0.101411	0.005585
0.444	0.001578	-0.004441	-0.000846	-0.014196	4e-05	-0.008484	0.131129	0.003383
0.4445	0.001343	-0.004701	-0.000442	-0.012811	0.000507	-0.010599	0.114975	0.003023
0.445	0.002196	-0.001878	0.000893	-0.011215	-0.000511	-0.00748	0.06034	0.003513
0.4455	0.003697	0.001994	0.001867	-0.011864	-0.002637	-0.004093	0.007595	0.003324
0.446	0.004961	0.002324	0.001201	-0.014666	-0.003941	-0.002988	-0.014468	0.003264
0.4465	0.005789	-0.003724	0.000519	-0.016658	-0.00361	-0.002423	-0.010515	0.006625
0.447	0.006274	-0.013226	0.000544	-0.015563	-0.002526	-0.00158	0.000886	0.013853
0.4475	0.006513	-0.019282	-0.001772	-0.012462	-0.002059	-0.000688	0.008808	0.020732
0.448	0.006359	-0.018083	-0.005519	-0.00946	-0.003657	5.7e-05	0.01005	0.024933
0.4485	0.005926	-0.012802	-0.005188	-0.007256	-0.006289	-0.000216	0.005619	0.027434
0.449	0.005906	-0.010493	-0.000976	-0.005809	-0.007186	-0.001199	0.001304	0.027741
0.4495	0.006811	-0.015948	0.001511	-0.004318	-0.006632	-0.001148	0.000471	0.025426
0.45	0.007678	-0.027142	-0.000434	0.001228	-0.00628	-0.000701	-0.005871	0.023304
0.4505	0.008021	-0.034173	-0.003841	0.012883	-0.004595	-0.002088	-0.031312	0.022257
0.451	0.009134	-0.027728	-0.004452	0.023836	-0.000637	-0.003988	-0.071338	0.020023
0.4515	0.010433	-0.011698	-0.00257	0.026342	0.001479	-0.003912	-0.097328	0.017384
0.452	0.009817	0.00291	-0.000342	0.020759	-0.001569	-0.002637	-0.083552	0.015968
0.4525	0.007042	0.015749	0.002781	0.013014	-0.006907	-0.001571	-0.038157	0.01257
0.453	0.003995	0.033263	0.006935	0.008983	-0.00977	-0.001047	0.004055	0.004282
0.4535	0.002823	0.049981	0.009788	0.010084	-0.0083	-0.001189	0.019069	-0.005493
0.454	0.003616	0.051401	0.009455	0.011844	-0.0032	-0.001352	0.011899	-0.012922
0.4545	0.004801	0.035594	0.00692	0.009456	0.00432	-0.000889	0.000783	-0.019066
0.455	0.004569	0.0187	0.00533	0.004873	0.01298	-0.000763	-0.003581	-0.025159
0.4555	0.002722	0.015984	0.006566	0.002716	0.020883	-0.001973	-0.004332	-0.030402
0.456	0.001148	0.024828	0.009033	0.002907	0.026372	-0.003867	-0.013577	-0.033782
0.4565	0.000399	0.031892	0.010076	0.002923	0.029685	-0.005441	-0.040749	-0.033714
0.457	-0.000589	0.030786	0.00932	0.001534	0.032375	-0.005484	-0.081381	-0.030205
0.4575	-0.001566	0.023988	0.007439	0.000121	0.034038	-0.003818	-0.120217	-0.025882
0.458	-0.001295	0.015208	0.004506	0.001141	0.033093	-0.002593	-0.14796	-0.022485
0.4585	-2e-06	0.007893	0.001669	0.003706	0.030729	-0.002493	-0.170127	-0.019764
0.459	-0.000327	0.004576	0.000142	0.004625	0.029969	-0.001936	-0.19617	-0.017137
0.4595	-0.003282	0.004641	-0.000968	0.002673	0.032602	-0.000123	-0.223229	-0.015746
0.46	-0.005173	0.004195	-0.002727	-0.000106	0.037302	0.002538	-0.226245	-0.017497
0.4605	-0.003133	-0.002036	-0.004898	-0.000456	0.038622	0.004797	-0.160048	-0.020521
0.461	0.000614	-0.014836	-0.006766	0.001452	0.026207	0.006101	0.006591	-0.020031
0.4615	0.002114	-0.027009	-0.007717	0.001657	-0.010537	0.007478	0.239509	-0.015108
0.462	0.000294	-0.032373	-0.00764	-0.001284	-0.064086	0.008595	0.439936	-0.009534
0.4625	-0.002714	-0.034628	-0.006037	-0.003065	-0.100093	0.00793	0.51837	-0.004029
0.463	-0.004763	-0.037894	-0.001967	-0.000368	-0.088107	0.006257	0.463754	0.004004
0.4635	-0.005205	-0.034372	0.0036	0.003029	-0.040745	0.004354	0.331457	0.012203
0.464	-0.004291	-0.013426	0.007686	0.001862	-0.001803	0.00068	0.174041	0.015595
0.4645	-0.002699	0.02088	0.007748	-0.002885	0.006016	-0.004077	0.007661	0.014002
0.465	-0.00123	0.049681	0.004388	-0.006174	-0.00075	-0.006514	-0.151269	0.010447
0.4655	0.000278	0.055747	0.002091	-0.00626	-0.000745	-0.006344	-0.253475	0.006852
0.466	0.002007	0.037299	0.003636	-0.005411	0.005977	-0.006356	-0.25492	0.004603
0.4665	0.002487	0.007773	0.005549	-0.005807	0.010774	-0.007145	-0.171132	0.005274
0.467	0.001044	-0.015887	0.003466	-0.007834	0.012356	-0.007242	-0.064473	0.007834
0.4675	-0.000655	-0.026499	-0.002081	-0.008987	0.012523	-0.006217	0.006896	0.008954
0.468	-0.000294	-0.027826	-0.006313	-0.006411	0.011184	-0.002968	0.012565	0.005787
0.4685	0.00224	-0.026286	-0.004978	-0.00157	0.008623	0.003632	-0.036153	-0.001141
0.469	0.003624	-0.026144	-0.000408	0.002076	0.006325	0.010729	-0.068246	-0.006285
0.4695	0.001953	-0.027893	0.00153	0.002726	0.006467	0.014953	0.00403	-0.005509
0.47	-0.000261	-0.030001	0.000322	0.000339	0.008914	0.016436	0.181108	-0.001657
0.4705	-0.000518	-0.031806	-0.000821	-0.002486	0.009816	0.016158	0.340154	0.000159
0.471	0.00065	-0.03265	-0.000725	-0.002589	0.007401	0.014684	0.342073	-0.001494
0.4715	0.001633	-0.031504	-0.000195	-0.001235	0.00474	0.013063	0.172753	-0.005097
0.472	0.001182	-0.029446	-0.000751	-0.001777	0.004557	0.011687	-0.04274	-0.009577
0.4725	-0.001369	-0.028941	-0.002556	-0.003744	0.005697	0.009175	-0.164986	-0.014013
0.473	-0.004031	-0.025189	-0.003343	-0.004238	0.005777	0.00477	-0.160526	-0.016782
0.4735	-0.004174	-0.005928	-0.001378	-0.002273	0.004198	0.000187	-0.102065	-0.01657
0.474	-0.003057	0.03035	0.001869	-0.000673	0.001117	-0.003627	-0.075906	-0.014324
0.4745	-0.00268	0.065032	0.002923	-0.002808	-0.003577	-0.007321	-0.099054	-0.01317
0.475	-0.002377	0.074841	-0.000375	-0.005934	-0.010337	-0.010075	-0.119937	-0.01263
0.4755	-0.001292	0.053897	-0.00653	-0.005101	-0.020595	-0.010235	-0.092476	-0.009388
0.476	-6.3e-05	0.020095	-0.010938	-0.001655	-0.033913	-0.008046	-0.032172	-0.005212
0.4765	0.000214	-0.004199	-0.010798	0.000209	-0.044491	-0.005921	0.009904	-0.003294
0.477	-0.000704	-0.015878	-0.00889	-7.3e-05	-0.04486	-0.00564	0.006365	-0.000974
0.4775	-0.002897	-0.025775	-0.009082	-0.000338	-0.033273	-0.006223	-0.033017	0.003978
0.478	-0.006296	-0.035842	-0.01088	0.000245	-0.016623	-0.00549	-0.088066	0.007338
0.4785	-0.00886	-0.037068	-0.011585	0.000638	-0.00536	-0.002904	-0.141981	0.006243
0.479	-0.008013	-0.027553	-0.010295	0.000613	-0.002458	-0.000104	-0.17871	0.004695
0.4795	-0.00395	-0.017695	-0.00782	0.000639	-0.000695	0.001246	-0.190555	0.006512
0.48	0.000323	-0.013653	-0.005748	0.000209	0.004598	0.000654	-0.187904	0.009913
0.4805	0.002062	-0.008154	-0.005078	-0.001571	0.009139	-0.001198	-0.189267	0.011416
0.481	0.001223	0.00319	-0.003495	-0.003316	0.009865	-0.002444	-0.203185	0.011172
0.4815	-0.000451	0.007074	0.001194	-0.002254	0.011422	-0.001905	-0.222574	0.012599
0.482	-0.001353	-0.009265	0.00495	-0.000175	0.02074	-7.8e-05	-0.221743	0.019588
0.4825	-0.000846	-0.031055	0.003156	-0.000956	0.037956	0.002026	-0.159051	0.03547
0.483	0.000697	-0.029974	-0.001644	-0.003008	0.054475	0.002573	-0.017723	0.05689
0.4835	0.002578	-0.0028	-0.004491	-0.002862	0.062888	0.000477	0.147356	0.068414
0.484	0.003852	0.0271	-0.004162	-0.000767	0.064079	-0.001152	0.254031	0.05608
0.4845	0.003532	0.043386	-0.002335	0.001474	0.058399	0.001248	0.297246	0.02611
0.485	0.001795	0.048924	-0.000551	0.002581	0.03322	0.005375	0.337708	-0.001775
0.4855	0.000553	0.049323	0.001961	0.00171	-0.023745	0.006436	0.375625	-0.018102
0.486	0.001458	0.044831	0.00664	0.000263	-0.089568	0.003594	0.338697	-0.028249
0.4865	0.003438	0.03715	0.011524	0.000953	-0.112071	-0.000889	0.222182	-0.035831
0.487	0.004557	0.031841	0.012949	0.00247	-0.072224	-0.004098	0.130086	-0.037122
0.4875	0.004327	0.030011	0.010998	0.001764	-0.013881	-0.004735	0.132153	-0.030842
0.488	0.003113	0.024374	0.008746	0.000568	0.010623	-0.004852	0.171997	-0.021787
0.4885	0.002009	0.009953	0.007695	0.000505	-4.1e-05	-0.005764	0.161905	-0.015168
0.489	0.001952	-0.007384	0.006578	-0.00083	-0.01207	-0.006175	0.096364	-0.011463
0.4895	0.002259	-0.016421	0.004298	-0.002666	-0.009202	-0.005491	0.032736	-0.008196
0.49	0.002179	-0.010641	0.002908	-0.001244	-0.002589	-0.003775	0.009696	-0.005372
0.4905	0.001941	0.004539	0.004664	0.002295	-0.00032	-0.000504	0.018471	-0.004835
0.491	-7e-05	0.013169	0.007661	0.004198	0.002653	0.003847	0.03189	-0.004708
0.4915	-0.005863	0.003446	0.008213	0.004489	0.007306	0.00718	0.037454	-0.000612
0.492	-0.011778	-0.016973	0.006326	0.004795	0.008087	0.008041	0.040058	0.0075
0.4925	-0.011916	-0.027067	0.005456	0.005479	0.004639	0.006731	0.039935	0.016356
0.493	-0.006461	-0.014671	0.006352	0.006016	0.001998	0.005069	0.023831	0.023011
0.4935	9.7e-05	0.013618	0.005865	0.005093	0.002307	0.004898	-0.013109	0.024863
0.494	0.004387	0.040043	0.002804	0.00333	0.002684	0.00488	-0.053167	0.025013
0.4945	0.005333	0.048812	-0.000307	0.003309	0.001238	0.002747	-0.075749	0.031891
0.495	0.003778	0.038251	-0.001373	0.004768	0.000477	-0.000299	-0.079023	0.046309
0.4955	0.000823	0.022252	-0.000575	0.0049	0.002227	-0.001678	-0.075085	0.058973
0.496	-0.002956	0.015539	0.00103	0.003518	0.002977	-0.001474	-0.073494	0.062344
0.4965	-0.006212	0.017323	0.001731	0.002819	-0.001525	-0.001812	-0.073771	0.055624
0.497	-0.007241	0.013269	-1e-06	0.002794	-0.010222	-0.003224	-0.070783	0.041314
0.4975	-0.006263	-0.005746	-0.003075	0.002941	-0.019605	-0.004863	-0.065555	0.024183
0.498	-0.005093	-0.029834	-0.004271	0.00394	-0.02661	-0.006165	-0.064386	0.007608
0.4985	-0.004639	-0.042011	-0.001524	0.003942	-0.028224	-0.006384	-0.067657	-0.010255
0.499	-0.004695	-0.042722	0.003383	0.001706	-0.025501	-0.006116	-0.068841	-0.031031
0.4995	-0.004747	-0.047468	0.005293	0.000472	-0.022948	-0.006889	-0.063128	-0.05228
0.5	-0.004254	-0.061066	0.002032	0.001619	-0.021576	-0.007877	-0.052575	-0.069574
0.5005	-0.002942	-0.069873	-0.001544	0.001961	-0.018924	-0.00726	-0.043457	-0.078567
0.501	-0.001037	-0.061438	-0.000806	0.000427	-0.013414	-0.005437	-0.038263	-0.078734
0.5015	0.000301	-0.045954	0.002312	-0.000702	-0.004649	-0.003675	-0.033377	-0.074585
0.502	-0.000148	-0.049768	0.003786	-0.001106	0.006416	-0.001208	-0.025859	-0.070354
0.5025	-0.002116	-0.080264	0.002792	-0.002044	0.016328	0.002819	-0.0172	-0.065836
0.503	-0.003847	-0.108477	0.000584	-0.003158	0.024571	0.006078	-0.010452	-0.059882
0.5035	-0.004061	-0.100022	-0.001925	-0.003718	0.037783	0.00637	-0.008049	-0.053434
0.504	-0.003504	-0.050882	-0.00439	-0.00354	0.060158	0.005315	-0.010349	-0.047023
0.5045	-0.00367	0.017732	-0.007364	-0.002376	0.08268	0.005033	-0.014613	-0.040068
0.505	-0.00424	0.079326	-0.011359	-0.001037	0.091093	0.005128	-0.018587	-0.031447
0.5055	-0.002733	0.107741	-0.014768	-0.001451	0.085888	0.004132	-0.022794	-0.019965
0.506	0.001359	0.089506	-0.015382	-0.003563	0.079996	0.001427	-0.028206	-0.006899
0.5065	0.004915	0.041209	-0.014136	-0.004118	0.068704	-0.001273	-0.035686	0.004847
0.507	0.005931	-0.002528	-0.01413	-0.001665	0.026797	-0.001058	-0.044833	0.015158
0.5075	0.005321	-0.019075	-0.015677	0.000871	-0.04538	0.001568	-0.050354	0.026899
0.507999999999999	0.00471	-0.00659	-0.016626	0.000925	-0.100713	0.00301	-0.044329	0.040668
0.508499999999999	0.005008	0.024916	-0.017144	-0.000806	-0.09802	0.00224	-0.026684	0.052132
0.508999999999999	0.005597	0.056517	-0.018403	-0.001707	-0.054528	0.000773	-0.008775	0.056663
0.509499999999999	0.005722	0.067101	-0.01781	-0.000823	-0.018547	-0.000841	-0.001287	0.054549
0.509999999999999	0.005781	0.053262	-0.011959	-0.000349	-0.008495	-0.002813	-0.003926	0.050134
0.510499999999999	0.006385	0.032617	-0.002408	-0.001701	-0.006648	-0.005366	-0.008775	0.047081
0.510999999999999	0.007645	0.019216	0.006128	-0.00345	0.000879	-0.007346	-0.008631	0.045914
0.511499999999999	0.008615	0.008805	0.011064	-0.003192	0.007562	-0.006433	-0.00269	0.044553
0.511999999999999	0.008519	-0.004423	0.013553	-0.000204	0.006334	-0.003654	0.004275	0.04029
0.512499999999999	0.00839	-0.012983	0.01566	0.003325	0.003585	-0.00205	0.009121	0.033677
0.512999999999999	0.008472	-0.011675	0.016381	0.005278	0.008009	-0.001811	0.013168	0.0285
0.513499999999999	0.007219	-0.013568	0.013826	0.005493	0.015852	-0.002327	0.017029	0.026947
0.513999999999999	0.004906	-0.033144	0.010117	0.003757	0.015905	-0.003282	0.019003	0.027295
0.514499999999999	0.003376	-0.060321	0.007263	0.000397	0.006087	-0.002766	0.018086	0.025358
0.514999999999999	0.002387	-0.067426	0.003581	-0.002276	-0.003426	-0.000349	0.013958	0.018714
0.515499999999999	0.000509	-0.041785	-0.000673	-0.003508	-0.003434	0.001664	0.006465	0.009872
0.515999999999999	-0.001897	-0.000418	-0.002308	-0.004564	0.003754	0.002407	-0.003438	0.004399
0.516499999999999	-0.003901	0.027286	0.00043	-0.004527	0.009162	0.003186	-0.013899	0.00556
0.516999999999998	-0.005031	0.027067	0.006529	-0.003079	0.007994	0.005015	-0.022376	0.009139
0.517499999999998	-0.004192	0.010552	0.012444	-0.002164	0.001932	0.006742	-0.025341	0.005846
0.517999999999998	-0.001926	0.001278	0.014714	-0.001343	-0.003943	0.006058	-0.020179	-0.009758
0.518499999999998	-0.000625	0.013683	0.012724	0.000476	-0.003877	0.003994	-0.008683	-0.034045
0.518999999999998	-0.000399	0.044427	0.008499	0.002216	0.00515	0.003568	0.003204	-0.056706
0.519499999999998	2.3e-05	0.079504	0.005747	0.003121	0.019888	0.004538	0.010504	-0.069015
0.519999999999998	-5.4e-05	0.10582	0.006886	0.003513	0.030765	0.004761	0.012428	-0.070445
0.520499999999998	-0.001141	0.115106	0.010665	0.002932	0.031098	0.003585	0.01027	-0.06803
0.520999999999998	-0.001742	0.103909	0.015093	0.001063	0.024592	0.00194	0.004917	-0.068979
0.521499999999998	-0.001241	0.077738	0.018961	-5.4e-05	0.018553	0.000547	-7.8e-05	-0.07236
0.521999999999998	-0.000143	0.052137	0.019962	0.000288	0.01672	-0.000591	0.007016	-0.071953
0.522499999999998	0.001496	0.038362	0.016853	0.000586	0.01918	-0.001509	0.039531	-0.064247
0.522999999999998	0.002923	0.030445	0.011326	0.001124	0.022927	-0.002498	0.090489	-0.049985
0.523499999999998	0.003412	0.018226	0.005649	0.001588	0.024266	-0.0026	0.121747	-0.035201
0.523999999999998	0.003503	0.003224	0.002144	0.000984	0.021902	-0.000593	0.095595	-0.028368
0.524499999999998	0.003325	-0.007801	0.002786	0.000603	0.017946	0.001443	0.022204	-0.030593
0.524999999999998	0.0021	-0.012824	0.006559	0.000528	0.01504	0.001458	-0.048779	-0.032771
0.525499999999998	0.000135	-0.013903	0.010362	-0.001174	0.009103	0.000923	-0.086627	-0.024793
0.525999999999997	-0.001599	-0.012457	0.011888	-0.003471	-0.009254	0.001378	-0.10533	-0.006138
0.526499999999997	-0.003677	-0.008423	0.010323	-0.003128	-0.034059	0.003084	-0.131284	0.012754
0.526999999999997	-0.005969	-0.004509	0.006653	-0.001029	-0.033614	0.006317	-0.161799	0.020792
0.527499999999997	-0.0059	-0.005113	0.001816	-0.000684	0.010152	0.009551	-0.159027	0.019946
0.527999999999997	-0.002948	-0.008561	-0.005478	-0.002002	0.057391	0.009776	-0.087475	0.023412
0.528499999999997	-0.000645	-0.008948	-0.015655	-0.002901	0.044038	0.006752	0.037061	0.03782
0.528999999999997	-0.001677	-0.006049	-0.025015	-0.002399	-0.038083	0.002507	0.146191	0.056329
0.529499999999997	-0.004485	-0.003888	-0.029445	-0.001046	-0.123487	-0.002316	0.180397	0.069826
0.529999999999997	-0.006227	-0.003283	-0.028577	-0.001022	-0.142897	-0.006617	0.145141	0.075617
0.530499999999997	-0.005866	-0.006011	-0.024067	-0.002477	-0.095185	-0.008388	0.093559	0.074457
0.530999999999997	-0.004054	-0.021231	-0.018352	-0.002719	-0.036953	-0.008892	0.062541	0.067221
0.531499999999997	-0.002819	-0.054681	-0.015296	-0.001054	-0.012563	-0.01057	0.044998	0.056811
0.531999999999997	-0.002768	-0.09341	-0.017789	0.00027	-0.01739	-0.012571	0.02001	0.046987
0.532499999999997	-0.001553	-0.118904	-0.02468	-0.000283	-0.026107	-0.012705	-0.016855	0.039287
0.532999999999997	0.001517	-0.136103	-0.032861	-0.001321	-0.028848	-0.010071	-0.058503	0.033377
0.533499999999997	0.004269	-0.166592	-0.040901	-0.001196	-0.029948	-0.005839	-0.093505	0.027957
0.533999999999997	0.005211	-0.207764	-0.046647	-0.000344	-0.029751	-0.002968	-0.096421	0.022169
0.534499999999997	0.004312	-0.222386	-0.045237	0.000875	-0.02111	-0.002159	-0.037937	0.016086
0.534999999999996	0.002433	-0.18052	-0.034401	0.001998	-0.000712	-0.000709	0.070153	0.01032
0.535499999999996	0.001401	-0.095393	-0.019105	0.001106	0.019829	0.002347	0.154026	0.007119
0.535999999999996	0.002415	-0.008201	-0.008279	-0.002331	0.018582	0.004408	0.142682	0.007767
0.536499999999996	0.003618	0.050481	-0.006629	-0.005203	-0.013435	0.003168	0.05794	0.010086
0.536999999999996	0.002212	0.075411	-0.00954	-0.004363	-0.054755	-0.00048	-0.004922	0.013154
0.537499999999996	-0.001403	0.07493	-0.007501	-0.001209	-0.067751	-0.003459	0.006758	0.01849
0.537999999999996	-0.004936	0.061356	0.003314	0.000719	-0.036962	-0.003819	0.053065	0.024611
0.538499999999996	-0.007148	0.048065	0.016998	0.000592	0.00965	-0.002905	0.076224	0.028518
0.538999999999996	-0.007199	0.040939	0.024276	-0.000245	0.029628	-0.002709	0.074393	0.031133
0.539499999999996	-0.004597	0.033388	0.02113	-0.001375	0.013575	-0.002346	0.076803	0.034719
0.539999999999996	-0.001074	0.017321	0.012656	-0.002343	-0.01219	-0.000942	0.085577	0.040041
0.540499999999996	0.000489	-0.001599	0.007476	-0.001202	-0.022847	-0.000188	0.075295	0.047795
0.540999999999996	-0.000624	-0.007676	0.009258	0.001385	-0.016283	-0.000901	0.035074	0.056852
0.541499999999996	-0.00258	0.002499	0.016465	0.002593	-0.004778	-0.001622	-0.011621	0.065035
0.541999999999996	-0.003032	0.01508	0.025197	0.003272	0.000997	-0.000477	-0.032995	0.071325
0.542499999999996	-0.000802	0.021916	0.030556	0.004598	0.000543	0.003098	-0.026218	0.070971
0.542999999999996	0.002378	0.02855	0.03024	0.004761	-0.000746	0.007184	-0.019791	0.056534
0.543499999999996	0.002758	0.03512	0.025912	0.004288	0.000568	0.008879	-0.043186	0.027896
0.543999999999995	-0.000358	0.032139	0.020639	0.00463	0.004998	0.007286	-0.098561	-0.006834
0.544499999999995	-0.002934	0.02024	0.017197	0.003857	0.011712	0.004612	-0.150716	-0.037386
0.544999999999995	-0.001993	0.01735	0.016547	0.001722	0.018244	0.003346	-0.145175	-0.053597
0.545499999999995	0.00035	0.040552	0.016776	0.000838	0.021733	0.003534	-0.060563	-0.052285
0.545999999999995	0.001211	0.085099	0.015296	0.000647	0.022933	0.004524	0.050569	-0.045148
0.546499999999995	0.001187	0.123035	0.012558	-0.000149	0.026106	0.005931	0.101415	-0.048718
0.546999999999995	0.002229	0.127702	0.011307	-9.4e-05	0.032792	0.007177	0.062734	-0.067059
0.547499999999995	0.003826	0.100835	0.011968	0.000699	0.037797	0.007738	-0.014584	-0.089121
0.547999999999995	0.00329	0.067282	0.012725	0.000505	0.033757	0.006603	-0.071154	-0.100237
0.548499999999995	0.001045	0.04683	0.012133	-0.00122	0.02173	0.003793	-0.091286	-0.096519
0.548999999999995	0.000966	0.041903	0.009193	-0.003801	0.011426	0.001476	-0.083663	-0.086667
0.549499999999995	0.003442	0.045106	0.00397	-0.005032	0.008071	0.001273	-0.056045	-0.07963
0.549999999999995	0.004878	0.046392	-0.002048	-0.00342	0.008088	0.002124	-0.020703	-0.075735
0.550499999999995	0.004185	0.040006	-0.006863	-0.001277	0.006989	0.002245	0.003057	-0.070347
0.550999999999995	0.003607	0.03195	-0.008922	-0.001203	0.005438	0.002107	0.006901	-0.0615
0.551499999999995	0.002932	0.031268	-0.007648	-0.000959	0.007299	0.002263	0.003039	-0.05106
0.551999999999995	-0.000169	0.036125	-0.002824	0.001565	0.012892	0.001918	0.007845	-0.041842
0.552499999999995	-0.004257	0.039021	0.005206	0.003481	0.018132	0.001684	0.024821	-0.034787
0.552999999999994	-0.006077	0.037432	0.014061	0.002986	0.019315	0.002055	0.047374	-0.02669
0.553499999999994	-0.005186	0.032589	0.019443	0.001783	0.016402	0.001758	0.067562	-0.013732
0.553999999999994	-0.00278	0.024134	0.018019	0.000931	0.013148	0.000626	0.07858	0.003704
0.554499999999994	-0.000136	0.010747	0.010523	0.000456	0.012563	-0.000636	0.075835	0.023091
0.554999999999994	0.001213	-0.004907	0.001815	-6.3e-05	0.012724	-0.002571	0.059013	0.041023
0.555499999999994	0.000816	-0.016437	-0.002745	-0.001537	0.01045	-0.005003	0.035266	0.050225
0.555999999999994	0.000545	-0.022155	-0.002264	-0.003081	0.006885	-0.006432	0.018894	0.043804
0.556499999999994	0.00222	-0.028392	-0.000969	-0.002444	0.004864	-0.006277	0.015699	0.024036
0.556999999999994	0.004976	-0.038066	-0.002826	-0.000426	0.00474	-0.004927	0.004803	-0.000972
0.557499999999994	0.006041	-0.043484	-0.007105	0.000887	0.006129	-0.003302	-0.045503	-0.026011
0.557999999999994	0.004506	-0.038171	-0.010401	0.001209	0.008849	-0.001735	-0.136011	-0.048111
0.558499999999994	0.003179	-0.028218	-0.011839	-0.000122	0.011481	0.000131	-0.22925	-0.062192
0.558999999999994	0.00312	-0.025032	-0.014188	-0.001348	0.011572	0.001135	-0.291815	-0.06401
0.559499999999994	0.001285	-0.029903	-0.018744	-3.3e-05	0.008315	0.000577	-0.321689	-0.058741
0.559999999999994	-0.002838	-0.033689	-0.022746	0.00055	0.00403	0.000411	-0.31638	-0.054006
0.560499999999994	-0.006073	-0.032831	-0.024082	-0.001315	0.00141	0.001862	-0.235057	-0.043047
0.560999999999994	-0.006392	-0.035748	-0.023986	-0.002153	0.001223	0.003398	-0.037116	-0.016304
0.561499999999994	-0.004305	-0.050871	-0.023777	-0.001083	0.002153	0.003377	0.222334	0.015777
0.561999999999994	-0.002451	-0.077064	-0.022273	0.000577	0.002537	0.002137	0.384746	0.033103
0.562499999999993	-0.002549	-0.107731	-0.01652	0.002754	0.002419	0.001088	0.341632	0.03116
0.562999999999993	-0.002965	-0.137354	-0.005596	0.004527	0.001185	0.001115	0.169011	0.022164
0.563499999999993	-0.002452	-0.163264	0.004974	0.003945	-0.002619	0.001742	0.040168	0.01666
0.563999999999993	-0.001848	-0.185136	0.007878	0.001435	-0.007213	0.00158	0.031178	0.01457
0.564499999999993	-0.001408	-0.200787	0.003896	-0.00051	-0.009394	0.000304	0.079165	0.012163
0.564999999999993	-0.001284	-0.203733	0.000393	-0.0012	-0.009702	-0.000764	0.1016	0.00856
0.565499999999993	-0.002448	-0.189268	0.002313	-0.000884	-0.011257	-0.000974	0.079541	0.005783
0.565999999999993	-0.00427	-0.156856	0.007974	0.000498	-0.014185	-0.001302	0.033204	0.005456
0.566499999999993	-0.00449	-0.102332	0.010502	0.00147	-0.015765	-0.002494	-0.018034	0.006044
0.566999999999993	-0.002587	-0.020414	0.005249	0.000599	-0.015591	-0.003845	-0.060599	0.005917
0.567499999999993	-9.9e-05	0.073674	-0.003706	-0.001426	-0.013922	-0.00468	-0.086238	0.007712
0.567999999999993	0.00232	0.141077	-0.008968	-0.003463	-0.006685	-0.006273	-0.095978	0.014438
0.568499999999993	0.004751	0.157728	-0.009437	-0.005034	0.009017	-0.009421	-0.095381	0.023998
0.568999999999993	0.005846	0.140351	-0.009879	-0.004928	0.02574	-0.011602	-0.088721	0.031926
0.569499999999993	0.005014	0.117187	-0.012738	-0.002856	0.031515	-0.010331	-0.081282	0.035102
0.569999999999993	0.003822	0.092873	-0.014021	-0.000839	0.024349	-0.007139	-0.077401	0.034119
0.570499999999993	0.003321	0.061577	-0.00967	0.000516	0.013166	-0.004865	-0.072434	0.034437
0.570999999999993	0.003136	0.036644	-0.003098	0.001537	0.005558	-0.002797	-0.060158	0.039171
0.571499999999992	0.00289	0.039133	5.3e-05	0.001176	0.002005	0.001261	-0.046923	0.042881
0.571999999999992	0.003323	0.064243	0.000243	-0.000583	0.003958	0.005935	-0.034834	0.03983
0.572499999999992	0.004265	0.081994	0.000106	-0.001891	0.019911	0.008115	0.004382	0.036229
0.572999999999992	0.00393	0.067783	-0.000709	-0.000818	0.053131	0.007287	0.098164	0.044324
0.573499999999992	0.002315	0.023791	-0.001663	0.002293	0.084244	0.004968	0.208148	0.062786
0.573999999999992	0.000902	-0.022983	0.000483	0.004515	0.080836	0.002312	0.24007	0.074294
0.574499999999992	0.000104	-0.043289	0.006696	0.003771	0.033866	-9.3e-05	0.143953	0.066157
0.574999999999992	-0.000272	-0.032074	0.013406	0.001099	-0.024637	-0.001946	-0.024573	0.044246
0.575499999999992	0.000204	-0.007971	0.016234	-0.001067	-0.050128	-0.003545	-0.16802	0.022531
0.575999999999992	0.00205	0.014961	0.013966	-0.001126	-0.028814	-0.005355	-0.239561	0.006874
0.576499999999992	0.003467	0.039674	0.009945	0.001002	0.011871	-0.007185	-0.239527	-0.005358
0.576999999999992	0.001878	0.065463	0.009661	0.002449	0.03441	-0.00764	-0.168214	-0.017224
0.577499999999992	-0.001221	0.076558	0.013697	0.000702	0.027833	-0.0056	-0.048435	-0.02811
0.577999999999992	-0.002749	0.065036	0.015849	-0.00049	0.007405	-0.002546	0.045765	-0.033222
0.578499999999992	-0.002913	0.049089	0.012416	0.002355	-0.017167	-0.000879	0.068549	-0.030546
0.578999999999992	-0.003028	0.051509	0.00779	0.005081	-0.053691	-0.000412	0.078018	-0.027967
0.579499999999992	-0.003231	0.068685	0.007698	0.003261	-0.098446	0.000492	0.143871	-0.032831
0.579999999999992	-0.003433	0.077641	0.011329	-0.00077	-0.116454	0.001229	0.218154	-0.039452
0.580499999999991	-0.003721	0.06938	0.012179	-0.002114	-0.077443	0.000623	0.204265	-0.03885
0.580999999999991	-0.004241	0.056701	0.006643	0.000154	-0.005194	-2e-05	0.123116	-0.032342
0.581499999999991	-0.004663	0.049327	-0.000341	0.002987	0.037629	0.000973	0.086893	-0.026357
0.581999999999991	-0.00352	0.042639	-0.002384	0.003085	0.020628	0.003155	0.119948	-0.023277
0.582499999999991	-0.00026	0.032834	-0.000845	0.00042	-0.022282	0.003705	0.131927	-0.019784
0.582999999999991	0.002459	0.024652	-0.00045	-0.001438	-0.040902	0.001097	0.074561	-0.009681
0.583499999999991	0.002129	0.020132	-0.001893	-0.000711	-0.024683	-0.001739	0.010896	0.006927
0.583999999999991	0.000243	0.011359	-0.004398	0.001103	0.000276	-0.002872	0.005945	0.020778
0.584499999999991	0.000282	-0.007133	-0.007704	0.002627	0.011517	-0.003891	0.037769	0.024925
0.584999999999991	0.002445	-0.026396	-0.010271	0.003471	0.011711	-0.004921	0.051706	0.023611
0.585499999999991	0.00298	-0.034131	-0.010955	0.003092	0.012816	-0.00473	0.039768	0.026985
0.585999999999991	0.000426	-0.032566	-0.009745	0.000842	0.01383	-0.003553	0.027608	0.038971
0.586499999999991	-0.002896	-0.034226	-0.007485	-0.001089	0.005992	-0.002695	0.023984	0.054345
0.586999999999991	-0.005079	-0.041282	-0.006853	-0.000626	-0.007891	-0.002598	0.016072	0.067074
0.587499999999991	-0.005475	-0.042449	-0.00899	0.000253	-0.01927	-0.00172	-0.006374	0.076623
0.587999999999991	-0.004456	-0.031736	-0.010569	0.000291	-0.036798	0.000394	-0.040418	0.083658
0.588499999999991	-0.003182	-0.01823	-0.008606	-0.000391	-0.076482	0.001627	-0.073531	0.082789
0.588999999999991	-0.002245	-0.013929	-0.005362	-0.002146	-0.123317	0.001369	-0.090341	0.068684
0.58949999999999	-0.001631	-0.019783	-0.0054	-0.003237	-0.132516	0.001213	-0.083404	0.045996
0.58999999999999	-0.001366	-0.028097	-0.009094	-0.002191	-0.086283	0.001586	-0.063577	0.023741
0.59049999999999	-0.001343	-0.032174	-0.011962	-0.001177	-0.023469	0.00137	-0.052797	0.005455
0.59099999999999	-0.001826	-0.030839	-0.01083	-0.001165	0.006592	4e-06	-0.063496	-0.00982
0.59149999999999	-0.003045	-0.027346	-0.007325	-0.00017	-0.004476	-0.000952	-0.092533	-0.023943
0.59199999999999	-0.00383	-0.02565	-0.004061	0.000369	-0.03369	0.000796	-0.129532	-0.04081
0.59249999999999	-0.003411	-0.028261	-0.001383	-0.001574	-0.060856	0.004481	-0.157757	-0.062818
0.59299999999999	-0.002439	-0.034623	-0.000563	-0.002808	-0.070024	0.006792	-0.153822	-0.084253
0.59349999999999	-0.001277	-0.039384	-0.00388	-0.001989	-0.040867	0.00726	-0.106896	-0.09492
0.59399999999999	-0.000282	-0.035052	-0.007862	-0.001636	0.028483	0.009209	-0.045449	-0.090588
0.59449999999999	-0.000945	-0.019654	-0.005894	-0.001686	0.103055	0.014125	-0.025992	-0.078121
0.59499999999999	-0.004004	-0.001477	0.001554	-0.001253	0.139894	0.018278	-0.069939	-0.069337
0.59549999999999	-0.006887	0.008253	0.008137	-0.001119	0.13271	0.017359	-0.118315	-0.069266
0.59599999999999	-0.006811	0.00715	0.009882	-0.000733	0.114483	0.012466	-0.081178	-0.07118
0.59649999999999	-0.004654	0.001797	0.007856	0.001172	0.112957	0.007621	0.057618	-0.06332
0.59699999999999	-0.002171	-0.001532	0.004922	0.00282	0.117791	0.004144	0.208409	-0.042191
0.59749999999999	0.000574	-0.002605	0.001401	0.001902	0.098933	0.000778	0.266082	-0.017817
0.59799999999999	0.003749	-0.004337	-0.002922	0.000256	0.045251	-0.003037	0.217964	-0.003331
0.598499999999989	0.00636	-0.006278	-0.005118	0.000146	-0.021876	-0.00491	0.141312	-0.001898
0.598999999999989	0.006954	-0.005726	-0.003182	0.000111	-0.067865	-0.003004	0.103619	-0.007075
0.599499999999989	0.005525	-0.006125	0.000302	-0.00125	-0.075177	-0.000608	0.098629	-0.013183
0.599999999999989	0.003129	-0.018047	0.001987	-0.001828	-0.05432	-0.001448	0.085613	-0.017914
0.600499999999989	0.001591	-0.046011	0.000989	3e-05	-0.025404	-0.004391	0.052493	-0.018703
0.600999999999989	0.00337	-0.075379	-0.00184	0.001312	0.00144	-0.005782	0.019059	-0.015806
0.601499999999989	0.007797	-0.082597	-0.003912	-0.000591	0.022173	-0.004016	0.000664	-0.013684
0.601999999999989	0.010932	-0.061055	-0.001768	-0.00291	0.030056	-0.001307	-0.009389	-0.014683
0.602499999999989	0.010678	-0.026456	0.005099	-0.002762	0.022869	-0.000301	-0.02592	-0.015374
0.602999999999989	0.008489	0.002315	0.013292	-0.001212	0.009887	-0.000286	-0.059189	-0.009484
0.603499999999989	0.006255	0.017174	0.018969	-0.000235	0.002233	0.000616	-0.115906	0.004906
0.603999999999989	0.003872	0.019174	0.019543	-0.000452	0.002805	0.001263	-0.184682	0.022011
0.604499999999989	0.001805	0.015289	0.015068	-0.001691	0.008263	-0.000701	-0.215891	0.035381
0.604999999999989	0.00243	0.015986	0.01041	-0.003396	0.012222	-0.004492	-0.156679	0.044661
0.605499999999989	0.005669	0.025892	0.010344	-0.00411	0.007431	-0.007133	-0.02571	0.05229
0.605999999999989	0.008057	0.036328	0.012661	-0.0031	-0.007499	-0.007254	0.085068	0.0577
0.606499999999989	0.007447	0.033517	0.011882	-0.001789	-0.02439	-0.006422	0.108293	0.058663
0.606999999999989	0.005698	0.017667	0.008038	-0.001625	-0.033015	-0.006116	0.067926	0.055109
0.607499999999988	0.006026	0.007089	0.006761	-0.002828	-0.032685	-0.004968	0.028114	0.048479
0.607999999999988	0.007719	0.016544	0.011317	-0.003783	-0.030061	-0.002487	0.013752	0.0401
0.608499999999988	0.00697	0.040214	0.017954	-0.002	-0.025383	-0.00115	0.008365	0.030679
0.608999999999988	0.003501	0.059869	0.019726	0.001802	-0.012107	-0.001838	-0.000657	0.01814
0.609499999999988	0.000873	0.060697	0.014289	0.00389	0.00861	-0.002374	-0.006885	-0.002514
0.609999999999988	-6.6e-05	0.040584	0.006449	0.002958	0.021853	-0.00044	-0.004887	-0.031799
0.610499999999988	-0.001846	0.014369	0.002135	0.001648	0.011443	0.003781	-0.001634	-0.062089
0.610999999999988	-0.004346	0.005423	0.002347	0.001357	-0.021242	0.00706	-0.005047	-0.08353
0.611499999999988	-0.005078	0.020956	0.003706	0.000685	-0.052162	0.00653	-0.013425	-0.085929
0.611999999999988	-0.003277	0.041518	0.002922	-0.000508	-0.052421	0.002868	-0.018863	-0.062906
0.612499999999988	0.000503	0.043508	0.000164	-0.001229	-0.01659	-0.000735	-0.017076	-0.02301
0.612999999999988	0.004542	0.024785	-0.002188	-0.001432	0.028813	-0.001833	-0.012139	0.01387
0.613499999999988	0.006909	0.00354	-0.003364	-0.001363	0.051641	-0.001059	-0.009345	0.033594
0.613999999999988	0.007444	-0.004403	-0.004272	-0.000592	0.045699	5e-06	-0.007564	0.03621
0.614499999999988	0.006657	-0.002678	-0.004775	0.001508	0.029328	0.001946	-0.005877	0.03056
0.614999999999988	0.004924	-0.005759	-0.004404	0.004461	0.018692	0.00458	-0.011205	0.024017
0.615499999999988	0.003095	-0.017041	-0.004742	0.00607	0.014933	0.004899	-0.028824	0.016428
0.615999999999988	0.001865	-0.024035	-0.007449	0.004607	0.014435	0.00142	-0.051152	0.003962
0.616499999999988	9.7e-05	-0.013812	-0.010819	0.002505	0.018423	-0.003261	-0.066784	-0.011689
0.616999999999987	-0.003423	0.012174	-0.011592	0.002761	0.030215	-0.004256	-0.073641	-0.024674
0.617499999999987	-0.006345	0.035909	-0.009109	0.003833	0.048836	0.0009	-0.072697	-0.032729
0.617999999999987	-0.006374	0.038564	-0.005753	0.003391	0.067649	0.00842	-0.058438	-0.034753
0.618499999999987	-0.005961	0.020734	-0.004735	0.001639	0.077782	0.012864	-0.02649	-0.025976
0.618999999999987	-0.007929	-0.000254	-0.007749	5e-05	0.075534	0.013482	0.013261	-0.00185
0.619499999999987	-0.011039	-0.011091	-0.013155	-0.000219	0.066662	0.012279	0.041566	0.032883
0.619999999999987	-0.01286	-0.013247	-0.016537	0.000676	0.054531	0.010484	0.053164	0.063982
0.620499999999987	-0.013205	-0.014093	-0.015798	0.001369	0.028334	0.008525	0.061068	0.08328
0.620999999999987	-0.013218	-0.01439	-0.013902	0.001005	-0.020394	0.004745	0.070231	0.094676
0.621499999999987	-0.013392	-0.010425	-0.013234	0.00101	-0.073307	-0.003963	0.066109	0.098901
0.621999999999987	-0.013229	-0.002896	-0.012515	0.002416	-0.095745	-0.017058	0.033613	0.087718
0.622499999999987	-0.011515	0.002927	-0.010627	0.003193	-0.076741	-0.02762	-0.024476	0.058552
0.622999999999987	-0.008229	0.002582	-0.008117	0.001181	-0.047129	-0.027415	-0.087061	0.023118
0.623499999999987	-0.005298	-0.003499	-0.006425	-0.00247	-0.045586	-0.018303	-0.131307	-0.005229
0.623999999999987	-0.004173	-0.012259	-0.006405	-0.004349	-0.071569	-0.012605	-0.145475	-0.025108
0.624499999999987	-0.004922	-0.025016	-0.005987	-0.003649	-0.087107	-0.015092	-0.118128	-0.041129
0.624999999999987	-0.006362	-0.046223	-0.003136	-0.002784	-0.065062	-0.016265	-0.039455	-0.05298
0.625499999999987	-0.006804	-0.07429	7.7e-05	-0.002533	-0.02079	-0.009235	0.052163	-0.057636
0.625999999999986	-0.006135	-0.095983	0.001067	-0.001667	0.009754	0.000354	0.059375	-0.056451
0.626499999999986	-0.005677	-0.093413	0.000565	-0.000211	0.011692	0.005123	-0.055463	-0.052697
0.626999999999986	-0.006163	-0.065418	0.000256	0.000346	-0.000187	0.005958	-0.153357	-0.04405
0.627499999999986	-0.00648	-0.03672	0.000195	-0.000562	-0.007199	0.007181	-0.044743	-0.02723
0.627999999999986	-0.004749	-0.034163	-0.000997	-0.00166	-0.006163	0.009446	0.238609	-0.009005
0.628499999999986	-0.001742	-0.058772	-0.003985	-0.001928	-0.004288	0.011346	0.432346	-0.000724
0.628999999999986	-0.000566	-0.081575	-0.006079	-0.001314	-0.006609	0.011091	0.362514	-0.002322
0.629499999999986	-0.000695	-0.062294	-0.004222	-0.000639	-0.012318	0.007587	0.154254	-0.003596
0.629999999999986	0.00123	0.012882	-0.000416	-0.00095	-0.019612	0.00396	0.037151	-4e-05
0.630499999999986	0.004137	0.103982	0.001269	-0.000844	-0.02742	0.003089	0.061157	0.00414
0.630999999999986	0.004929	0.143603	0.000582	0.000468	-0.032395	0.001665	0.109464	0.005787
0.631499999999986	0.004128	0.10128	9.2e-05	0.000147	-0.030758	-0.003713	0.102878	0.00669
0.631999999999986	0.003375	0.017571	0.001132	-0.002758	-0.022087	-0.009104	0.075552	0.007313
0.632499999999986	0.003174	-0.033488	0.003301	-0.005107	-0.009786	-0.007927	0.078793	0.00321
0.632999999999986	0.004238	-0.01706	0.006721	-0.004925	0.000773	-0.000146	0.095241	-0.006349
0.633499999999986	0.007295	0.033052	0.011394	-0.003447	0.006188	0.007769	0.060743	-0.013821
0.633999999999986	0.010457	0.060001	0.015225	-0.00143	0.0074	0.009833	-0.05917	-0.013572
0.634499999999986	0.010381	0.04778	0.01608	0.000478	0.008872	0.005719	-0.222003	-0.008765
0.634999999999985	0.00734	0.025953	0.014525	0.000306	0.014223	0.000394	-0.33727	-0.00386
0.635499999999985	0.004682	0.021331	0.012254	-0.000534	0.020929	-0.001847	-0.350804	0.003347
0.635999999999985	0.004527	0.028947	0.008618	0.000659	0.022282	-0.001229	-0.291398	0.018702
0.636499999999985	0.005187	0.030553	0.002176	0.002296	0.012655	-0.00054	-0.226257	0.045139
0.636999999999985	0.003541	0.020896	-0.004947	0.002918	-0.009613	-0.002482	-0.191884	0.075995
0.637499999999985	0.001167	0.009417	-0.008388	0.003399	-0.037035	-0.005965	-0.175164	0.092883
0.637999999999985	0.001901	0.005695	-0.005965	0.003544	-0.052936	-0.006241	-0.133597	0.082107
0.638499999999985	0.005046	0.008568	4.5e-05	0.003376	-0.04605	-0.003399	-0.031117	0.050996
0.638999999999985	0.006945	0.010195	0.004504	0.004213	-0.024226	-0.002576	0.112793	0.01595
0.639499999999985	0.006182	0.00846	0.005195	0.005062	-0.003093	-0.003341	0.215944	-0.016712
0.639999999999985	0.004563	0.00789	0.004609	0.003806	0.020804	-0.001403	0.221107	-0.047866
0.640499999999985	0.003776	0.009044	0.004906	0.002131	0.067611	0.001364	0.169849	-0.074643
0.640999999999985	0.003554	0.007818	0.005534	0.002058	0.136399	0.000868	0.125929	-0.090617
0.641499999999985	0.003344	0.0036	0.005634	0.002325	0.189792	-0.001761	0.070089	-0.08619
0.641999999999985	0.003158	-0.000557	0.005364	0.001892	0.189934	-0.003936	-0.034457	-0.049147
0.642499999999985	0.002494	-0.00292	0.004331	0.000831	0.140269	-0.004814	-0.1237	0.019028
0.642999999999985	0.000592	-0.00351	0.001474	-0.000533	0.083173	-0.003486	-0.1041	0.090948
0.643499999999985	-0.00143	-0.002805	-0.002006	-0.000944	0.056879	-5e-06	-0.016574	0.132503
0.643999999999984	-0.001395	-0.002249	-0.003589	0.000287	0.059552	0.003518	-0.012673	0.131744
0.644499999999984	0.00034	-0.002945	-0.003053	0.00094	0.061224	0.005406	-0.163234	0.102233
0.644999999999984	0.001405	-0.004538	-0.001529	-0.000778	0.043595	0.00515	-0.364536	0.065587
0.645499999999984	0.001231	-0.00668	-4.9e-05	-0.002023	0.016303	0.002946	-0.431466	0.03584
0.645999999999984	0.000911	-0.009166	-4.1e-05	-0.000948	-0.002903	0.001545	-0.246788	0.012612
0.646499999999984	3.8e-05	-0.01111	-0.002003	3.6e-05	-0.015681	0.004423	0.133227	-0.015001
0.646999999999984	-0.002267	-0.011318	-0.004421	0.000392	-0.045213	0.010626	0.474347	-0.05282
0.647499999999984	-0.00435	-0.009806	-0.005488	0.00147	-0.106208	0.015458	0.542743	-0.090871
0.647999999999984	-0.004694	-0.008128	-0.004976	0.002246	-0.174964	0.016379	0.354579	-0.115042
0.648499999999984	-0.004378	-0.006767	-0.003695	0.001402	-0.200343	0.014854	0.16822	-0.125994
0.648999999999984	-0.0037	-0.004792	-0.002235	-0.000267	-0.157575	0.013037	0.172342	-0.13659
0.649499999999984	-0.002138	-0.002763	-0.001389	-0.001288	-0.085602	0.011789	0.27916	-0.15366
0.649999999999984	-0.001113	-0.002136	-0.001967	-0.000636	-0.046593	0.010242	0.286565	-0.172412
0.650499999999984	-0.0014	-0.002686	-0.00281	0.000886	-0.052211	0.006966	0.142366	-0.181926
0.650999999999984	-0.001732	-0.003418	-0.001503	0.000977	-0.061254	0.002298	-0.035	-0.165287
0.651499999999984	-0.001719	-0.004041	0.001776	-0.000357	-0.044357	-0.002566	-0.124796	-0.10562
0.651999999999984	-0.001759	-0.004185	0.004427	-0.001479	-0.015412	-0.005941	-0.107906	-0.008977
0.652499999999984	-0.001571	-0.003667	0.005794	-0.00189	0.001202	-0.004653	-0.040658	0.084579
0.652999999999983	-0.001227	-0.003062	0.006517	-0.000887	0.002567	0.001525	0.007417	0.130294
0.653499999999983	-0.001277	-0.002829	0.005036	0.000928	-0.001766	0.007495	-0.00457	0.11904
0.653999999999983	-0.00154	-0.003245	0.000448	0.000773	-0.007407	0.008634	-0.066974	0.078508
0.654499999999983	-0.001451	-0.003832	-0.004153	-0.001232	-0.012298	0.005232	-0.12046	0.039756
0.654999999999983	-0.000377	-0.003209	-0.005194	-0.00258	-0.010993	0.000973	-0.096446	0.015286
0.655499999999983	0.001615	-0.00145	-0.002739	-0.002986	-0.002475	-0.002125	0.009985	0.005032
0.655999999999983	0.002729	0.000146	0.000336	-0.002792	0.006531	-0.005945	0.111156	0.005589
0.656499999999983	0.002219	0.001212	0.001547	-0.001576	0.011643	-0.013027	0.113071	0.010087
0.656999999999983	0.001196	0.001715	0.001219	-1e-05	0.014346	-0.02417	0.029269	0.012259
0.657499999999983	2e-06	0.001711	0.001369	0.001218	0.015711	-0.037251	-0.038952	0.014632
0.657999999999983	-0.000639	0.001694	0.001939	0.002061	0.015516	-0.045181	-0.029779	0.023712
0.658499999999983	0.000493	0.001855	0.001062	0.001445	0.015934	-0.039458	0.023513	0.039437
0.658999999999983	0.001903	0.001607	-0.001464	-0.000635	0.019366	-0.020674	0.058169	0.056727
0.659499999999983	0.001647	-0.000327	-0.003376	-0.001973	0.023755	-0.000401	0.048922	0.065931
0.659999999999983	0.001116	-0.003494	-0.002315	-0.002079	0.024356	0.011285	0.007762	0.053144
0.660499999999983	0.001305	-0.00607	0.000611	-0.002136	0.019152	0.013378	-0.036645	0.02183
0.660999999999983	0.000511	-0.007655	0.002053	-0.002	0.012043	0.009886	-0.05659	0.000332
0.661499999999983	-0.001074	-0.006864	0.0016	-0.000832	0.009895	0.005639	-0.051054	0.003255
0.661999999999982	-0.000963	-0.002709	0.001264	0.000302	0.01469	0.003372	-0.046655	0.005842
0.662499999999982	0.000267	0.001192	0.0018	-0.000878	0.022005	0.001935	-0.060632	-0.022767
0.662999999999982	-3.8e-05	0.001789	0.002517	-0.003311	0.027079	-0.000296	-0.081156	-0.07994
0.663499999999982	-0.000851	0.000734	0.002584	-0.003534	0.027803	-0.00225	-0.092616	-0.134946
0.663999999999982	-4.9e-05	-0.000339	0.001731	-0.001073	0.024064	-0.002429	-0.098629	-0.156723
0.664499999999982	0.001531	-0.001471	0.000184	0.000632	0.018612	-0.0005	-0.108439	-0.134243
0.664999999999982	0.002916	-0.001976	-0.001366	-0.001102	0.015737	0.003711	-0.118839	-0.083966
0.665499999999982	0.003484	-0.00229	-0.001352	-0.003384	0.016412	0.009272	-0.119863	-0.036181
0.665999999999982	0.002217	-0.003916	0.000605	-0.002919	0.018117	0.014315	-0.102754	-0.009827
0.666499999999982	0.000136	-0.006333	0.00185	-0.000953	0.018222	0.017207	-0.060331	-0.002263
0.666999999999982	-0.000849	-0.008013	0.000601	0.001373	0.014756	0.016478	0.001997	0.000159
0.667499999999982	-0.001094	-0.008128	-0.000903	0.002972	0.007839	0.013785	0.057766	0.005718
0.667999999999982	-0.001796	-0.007567	-0.0003	0.00227	6.6e-05	0.013107	0.078059	0.012244
0.668499999999982	-0.002882	-0.007752	0.001217	0.001432	-0.006745	0.013929	0.058806	0.016949
0.668999999999982	-0.003465	-0.007755	0.001609	0.0032	-0.012776	0.012188	0.028925	0.027675
0.669499999999982	-0.002128	-0.006808	0.001144	0.005641	-0.019035	0.007565	0.030976	0.057304
0.669999999999982	0.000647	-0.006966	0.000205	0.005631	-0.02615	0.003744	0.078922	0.105214
0.670499999999982	0.001751	-0.008916	-0.001908	0.003992	-0.033284	0.002039	0.13222	0.152889
0.670999999999982	0.001079	-0.008884	-0.00377	0.002706	-0.038753	0.000671	0.131114	0.179076
0.671499999999981	0.001082	-0.004158	-0.002654	0.00171	-0.041033	-0.000716	0.063603	0.175428
0.671999999999981	0.001755	0.001728	0.000384	0.000709	-0.038676	-0.002381	-0.018662	0.149341
0.672499999999981	0.001882	0.003905	0.001234	-0.000708	-0.032488	-0.005727	-0.057374	0.114062
0.672999999999981	0.000623	0.002942	-0.001299	-0.002896	-0.026805	-0.009225	-0.049024	0.079122
0.673499999999981	-0.001578	0.003211	-0.004299	-0.004874	-0.023659	-0.009312	-0.041145	0.049279
0.673999999999981	-0.002702	0.006189	-0.005089	-0.004848	-0.019555	-0.006187	-0.072012	0.02758
0.674499999999981	-0.001563	0.008387	-0.003378	-0.002059	-0.010473	-0.003843	-0.126975	0.016946
0.674999999999981	0.001533	0.00658	-0.000171	0.000742	0.004076	-0.004287	-0.160462	0.016439
0.675499999999981	0.005056	0.002387	0.001783	5.6e-05	0.019739	-0.005988	-0.1516	0.016286
0.675999999999981	0.006409	-4.9e-05	-0.000141	-0.002902	0.028921	-0.007502	-0.124446	0.004901
0.676499999999981	0.004084	0.000464	-0.003395	-0.004417	0.026831	-0.008384	-0.113428	-0.014573
0.676999999999981	0.000488	0.001324	-0.003239	-0.003927	0.01671	-0.007363	-0.121266	-0.026025
0.677499999999981	-0.00062	0.001305	0.00012	-0.003008	0.008435	-0.003227	-0.11652	-0.021026
0.677999999999981	-0.0002	0.002127	0.002879	-0.001675	0.009616	0.001477	-0.071915	-0.004685
0.678499999999981	-0.001195	0.003533	0.002986	7e-06	0.018488	0.002375	-0.002245	0.013589
0.678999999999981	-0.002494	0.003117	0.001592	0.000644	0.027033	-0.000244	0.04673	0.025949
0.679499999999981	-0.001891	0.001316	0.000728	9e-05	0.028846	-0.003475	0.049802	0.030366
0.679999999999981	0.000364	0.000784	0.001274	-0.000677	0.024072	-0.006648	0.028709	0.031541
0.68049999999998	0.00315	0.001924	0.002848	-0.001778	0.018995	-0.008581	0.021076	0.036865
0.68099999999998	0.005256	0.002504	0.003686	-0.003537	0.019688	-0.007485	0.039002	0.050825
0.68149999999998	0.005422	0.000926	0.003049	-0.00374	0.025368	-0.004875	0.067619	0.068253
0.68199999999998	0.003387	-0.001153	0.003114	-0.000749	0.031008	-0.003307	0.087502	0.075717
0.68249999999998	-0.000217	-0.001222	0.004334	0.002456	0.03453	-0.003357	0.091358	0.065275
0.68299999999998	-0.00421	-0.000399	0.004169	0.004163	0.036471	-0.005081	0.090438	0.04253
0.68349999999998	-0.005997	-0.000835	0.002843	0.005549	0.036447	-0.007609	0.101175	0.015212
0.68399999999998	-0.004417	-0.000933	0.002619	0.005173	0.034644	-0.008678	0.117593	-0.016789
0.68449999999998	-0.002839	0.00108	0.002103	0.002747	0.032716	-0.007833	0.109305	-0.051636
0.68499999999998	-0.00348	0.002922	-0.002177	0.000864	0.030669	-0.006767	0.058017	-0.07835
0.68549999999998	-0.003648	0.002337	-0.011374	-0.000158	0.026814	-0.006998	-0.017684	-0.087489
0.68599999999998	-0.002314	0.000864	-0.025707	-0.000297	0.020335	-0.008864	-0.084434	-0.081335
0.68649999999998	-0.002173	0.000721	-0.046046	0.001666	0.011704	-0.0097	-0.12784	-0.070915
0.68699999999998	-0.003623	0.002108	-0.070478	0.00388	0.004453	-0.004959	-0.16523	-0.06564
0.68749999999998	-0.004345	0.003936	-0.09262	0.00327	0.004276	0.00495	-0.238933	-0.064895
0.68799999999998	-0.003884	0.004524	-0.106158	0.001139	0.010712	0.012715	-0.376465	-0.061856
0.68849999999998	-0.003948	0.003268	-0.110332	0.000495	0.016088	0.013018	-0.525833	-0.055863
0.68899999999998	-0.005257	0.001284	-0.109934	0.001104	0.015851	0.009164	-0.540893	-0.05323
0.689499999999979	-0.005972	-0.000686	-0.108533	0.001032	0.012616	0.008076	-0.281528	-0.057648
0.689999999999979	-0.004702	-0.002221	-0.102693	-0.000372	0.009863	0.01198	0.21795	-0.066382
0.690499999999979	-0.003213	-0.00171	-0.084765	-0.001344	0.007795	0.016396	0.688658	-0.072742
0.690999999999979	-0.002769	0.001883	-0.047731	-0	0.005322	0.016301	0.820888	-0.071842
0.691499999999979	-0.002513	0.006656	0.013354	0.00196	0.001739	0.012189	0.566292	-0.064402
0.691999999999979	-0.002427	0.009525	0.096877	0.001302	-0.00293	0.007786	0.188941	-0.053484
0.692499999999979	-0.002805	0.009329	0.185388	-0.001784	-0.007508	0.005056	-0.021572	-0.040804
0.692999999999979	-0.002895	0.007796	0.246147	-0.004239	-0.011568	0.003506	-0.021324	-0.026616
0.693499999999979	-0.002084	0.00765	0.252504	-0.004213	-0.016314	0.002169	0.03314	-0.011099
0.693999999999979	-0.000989	0.008493	0.205945	-0.002085	-0.022027	0.000484	0.013162	0.005202
0.694499999999979	-6.3e-05	0.007579	0.132603	-0.000567	-0.02729	-0.002005	-0.071099	0.020836
0.694999999999979	0.001542	0.004351	0.059813	-0.00168	-0.031392	-0.005406	-0.146152	0.03152
0.695499999999979	0.003084	-2e-05	-0.001739	-0.002084	-0.035826	-0.008574	-0.17329	0.032373
