Time	L_BF	L_GAL	L_TA	L_VL	R_BF	R_GAL	R_TA	R_VL
0	0.00472	-0.001589	0.001103	0.00211	0.004103	-0.003802	0.011268	0.002851
0.0005	0.002163	-0.002659	-0.025141	-1.6e-05	0.003063	-0.005889	-0.017516	0.002455
0.001	0.00147	-0.002851	-0.030744	-0.00051	0.004152	-0.00662	-0.041251	0.00293
0.0015	0.002448	-0.001957	-0.018851	0.000118	0.006138	-0.006377	-0.053124	0.003034
0.002	0.003918	-0.000972	-0.005518	0.000216	0.007389	-0.008929	-0.055375	0.002137
0.0025	0.005328	-0.000119	0.000142	-0.000386	0.00861	-0.016336	-0.057232	0.002184
0.003	0.006105	0.000917	-0.000827	-0.000551	0.01054	-0.023166	-0.060448	0.004009
0.0035	0.006084	0.001134	-0.003439	0.000131	0.011907	-0.022067	-0.058579	0.005237
0.004	0.006569	-2e-05	-0.004355	0.000937	0.011363	-0.011895	-0.048332	0.003791
0.0045	0.008251	-0.000549	-0.003684	0.001045	0.009843	0.001941	-0.034268	0.001281
0.005	0.009592	0.000875	-0.003173	0.001133	0.008927	0.011982	-0.022324	0.001483
0.0055	0.009268	0.001941	-0.003634	0.001821	0.008306	0.014422	-0.013968	0.004007
0.006	0.008213	0.001118	-0.004703	0.001728	0.007272	0.010472	-0.008879	0.00421
0.0065	0.00728	0.000562	-0.00562	0.000646	0.005874	0.002275	-0.008573	0.001386
0.007	0.005826	0.0021	-0.005487	-5e-05	0.003814	-0.00796	-0.013595	-0.001317
0.0075	0.004016	0.004894	-0.004473	-0.000359	0.001113	-0.016389	-0.019906	-0.001869
0.008	0.003091	0.00655	-0.003766	-0.000794	-0.001302	-0.021454	-0.021762	-0.000194
0.0085	0.003462	0.005139	-0.003714	-0.000966	-0.002662	-0.025759	-0.018202	0.001264
0.009	0.004588	0.002033	-0.004001	-0.000585	-0.002728	-0.02976	-0.014566	0.001176
0.0095	0.005534	0.000711	-0.004625	9e-06	-0.002015	-0.029575	-0.016012	0.001705
0.01	0.005535	0.001614	-0.005148	0.001393	-0.001802	-0.023618	-0.0205	0.003646
0.0105	0.005463	0.002113	-0.005288	0.003731	-0.002217	-0.015898	-0.020278	0.004544
0.011	0.006588	0.000908	-0.007773	0.004776	-0.002404	-0.011124	-0.010997	0.003059
0.0115	0.007636	-0.001596	-0.016969	0.00362	-0.002553	-0.010207	0.001289	0.001707
0.012	0.007145	-0.003946	-0.031382	0.001742	-0.00293	-0.01035	0.004761	0.002837
0.0125	0.006136	-0.003667	-0.042055	-8.5e-05	-0.003771	-0.008661	-0.005425	0.00693
0.013	0.005395	-0.000941	-0.043588	-0.001199	-0.005389	-0.006361	-0.023016	0.016435
0.0135	0.004407	0.001091	-0.041858	-0.000758	-0.006164	-0.006144	-0.039725	0.030993
0.014	0.003559	0.001163	-0.046051	8.1e-05	-0.003919	-0.006699	-0.053303	0.039645
0.0145	0.003841	0.000248	-0.056003	-0.000446	-2.3e-05	-0.004699	-0.065999	0.031514
0.015	0.004783	-0.000706	-0.060314	-0.001801	0.000942	-0.000413	-0.078215	0.012561
0.0155	0.005269	-0.000593	-0.048345	-0.003143	-0.001753	0.001747	-0.086791	-0.001647
0.016	0.004784	0.000416	-0.021717	-0.004144	-0.003495	-0.001126	-0.089298	-0.005041
0.0165	0.003187	0.000657	0.009876	-0.003946	-0.002557	-0.005626	-0.085339	-0.004167
0.017	0.001511	0.000406	0.039026	-0.004004	-0.001612	-0.005713	-0.070058	-0.008348
0.0175	0.001171	0.000869	0.060845	-0.005532	-0.00208	-0.000739	-0.024782	-0.018524
0.018	0.001919	0.00144	0.069634	-0.006073	-0.003648	0.00381	0.073173	-0.026416
0.0185	0.002603	0.00142	0.063409	-0.004637	-0.005854	0.003152	0.21037	-0.026241
0.019	0.003091	0.001324	0.050097	-0.002714	-0.007348	-0.001675	0.320632	-0.020004
0.0195	0.00401	0.001573	0.043449	-0.001027	-0.00713	-0.005725	0.338783	-0.012302
0.02	0.004678	0.001956	0.048822	-0.00017	-0.006167	-0.006224	0.262382	-0.006141
0.0205	0.00368	0.002502	0.055285	-0.00103	-0.005443	-0.004253	0.141566	-0.002411
0.021	0.001396	0.003084	0.047846	-0.002874	-0.004908	-0.002524	0.025456	-0.000141
0.0215	-0.00075	0.002558	0.027012	-0.003401	-0.004375	-0.003547	-0.059458	0.002533
0.022	-0.001858	0.0002	0.009666	-0.002243	-0.003258	-0.006491	-0.097852	0.004488
0.0225	-0.00134	-0.002586	0.008649	-0.001	-0.001593	-0.008101	-0.086992	0.003777
0.023	0.000625	-0.003589	0.017782	-0.000305	-0.000664	-0.007992	-0.04752	0.003162
0.0235	0.002413	-0.002473	0.022438	1.4e-05	-0.000673	-0.008072	-0.011606	0.004618
0.024	0.002378	-0.000985	0.018949	-0.000143	-0.000623	-0.00887	0.003946	0.005381
0.0245	0.001097	-0.000728	0.014919	-0.000604	-0.000723	-0.00991	0.005554	0.003884
0.025	0.000572	-0.001172	0.014848	-0.000213	-0.001732	-0.010046	0.004812	0.001244
0.0255	0.001361	-0.000629	0.014681	0.001187	-0.002554	-0.008008	0.003883	-0.002916
0.026	0.002079	0.000376	0.009653	0.001489	-0.001972	-0.004987	0.000412	-0.009059
0.0265	0.00165	-7e-06	0.00165	-5.9e-05	-0.001194	-0.003372	-0.00434	-0.014331
0.027	0.000674	-0.000804	-0.003959	-0.001535	-0.001381	-0.003858	-0.007024	-0.016752
0.0275	-4.9e-05	6e-05	-0.006359	-0.00207	-0.00168	-0.005428	-0.007339	-0.017565
0.028	-0.000452	0.001941	-0.007972	-0.002083	-0.000832	-0.005283	-0.007787	-0.017625
0.0285	-0.000227	0.002719	-0.007178	-0.000732	0.001489	-0.001883	-0.010164	-0.017118
0.029	0.00113	0.001597	-0.000271	0.001519	0.003618	0.000368	-0.014586	-0.016636
0.0295	0.003466	0.000278	0.010536	0.001718	0.002933	-0.003503	-0.018397	-0.016919
0.03	0.005346	0.000628	0.017571	0.000112	-0.000365	-0.010072	-0.017364	-0.017
0.0305	0.004788	0.001111	0.017449	-0.000508	-0.00332	-0.011076	-0.012053	-0.01405
0.031	0.002184	-0.00037	0.014195	-0.001128	-0.004089	-0.003075	-0.007012	-0.009045
0.0315	0.000473	-0.00243	0.011693	-0.003611	-0.003267	0.00994	-0.004164	-0.006318
0.032	0.001298	-0.003309	0.010663	-0.005944	-0.002647	0.020799	-0.004104	-0.006063
0.0325	0.003545	-0.00366	0.010917	-0.006055	-0.003153	0.024803	-0.007193	-0.005506
0.033	0.005131	-0.004672	0.010358	-0.004699	-0.003656	0.021944	-0.009863	-0.004386
0.0335	0.004606	-0.006332	0.005948	-0.002406	-0.003094	0.015729	-0.007377	-0.002589
0.034	0.002412	-0.007326	-0.001577	0.000245	-0.001852	0.010754	0.001004	0.00137
0.0345	0.000961	-0.006228	-0.008083	0.000895	-0.000417	0.009184	0.011575	0.005233
0.035	0.001824	-0.003084	-0.011666	0.000299	0.000496	0.008289	0.017334	0.005695
0.0355	0.003415	0.00023	-0.013989	0.001408	0.00019	0.004072	0.013918	0.004679
0.036	0.003619	0.002085	-0.016667	0.002115	-0.001175	-0.000887	0.006479	0.004551
0.0365	0.002833	0.002668	-0.020549	-0.000299	-0.003125	0.000639	0.003639	0.005134
0.037	0.002444	0.002811	-0.025851	-0.003469	-0.004329	0.009097	0.006335	0.006541
0.0375	0.002313	0.00297	-0.030232	-0.004631	-0.00349	0.016554	0.010008	0.008234
0.038	0.001481	0.003221	-0.031515	-0.004047	-0.001549	0.018168	0.012962	0.009064
0.0385	0.000384	0.002651	-0.031179	-0.003852	-0.001078	0.019035	0.01544	0.008953
0.039	0.000446	1.6e-05	-0.030606	-0.004936	-0.002982	0.024594	0.01655	0.008083
0.0395	0.002261	-0.003379	-0.028201	-0.005151	-0.004603	0.02947	0.015494	0.005962
0.04	0.004448	-0.005095	-0.022602	-0.002879	-0.003869	0.024225	0.01201	0.00307
0.0405	0.005031	-0.005258	-0.014985	-0.000548	-0.001678	0.00954	0.008175	0.00084
0.041	0.004555	-0.004589	-0.008157	-0.000937	0.000792	-0.002821	0.008128	-0.000789
0.0415	0.004867	-0.003246	-0.004337	-0.001393	0.001823	-0.003313	0.011427	-0.001981
0.042	0.005934	-0.002681	-0.002661	0.001135	0.000456	0.005119	0.012382	-0.002212
0.0425	0.004991	-0.003211	-0.000379	0.003398	-0.000645	0.010184	0.009059	-0.001982
0.043	-0.002179	-0.00264	0.002908	0.002425	0.000927	0.000111	0.005948	-0.001728
0.0435	-0.015462	-0.000409	0.005471	0.000345	0.003597	-0.024202	0.006445	-0.001546
0.044	-0.02649	0.002035	0.006942	-0.000609	0.004387	-0.04465	0.009051	-0.001583
0.0445	-0.02635	0.004311	0.00802	0.000302	0.002152	-0.043193	0.010976	-0.000954
0.045	-0.016297	0.005556	0.0085	0.003252	-0.001376	-0.023733	0.01124	0.000715
0.0455	-0.0055	0.004424	0.007601	0.005661	-0.002808	-0.005703	0.010151	0.001424
0.046	0.000152	0.002352	0.004545	0.004237	-0.000755	-0.000116	0.008088	0.000299
0.0465	0.001549	0.00133	-0.001278	0.000367	0.002082	-0.003758	0.005839	0.000223
0.047	0.001339	0.000993	-0.008784	-0.001931	0.002346	-0.008575	0.004673	0.002476
0.0475	0.000598	0.000649	-0.015016	-0.001541	0.000308	-0.008195	0.004851	0.004512
0.048	-0.000414	0.000398	-0.018292	-3e-06	-0.000906	-0.002065	0.004985	0.005087
0.0485	-0.000585	7.4e-05	-0.019355	0.001602	0.000751	0.0058	0.003514	0.005066
0.049	0.001433	-0.000129	-0.018435	0.002813	0.003582	0.012657	0.000228	0.004339
0.0495	0.004704	0.001045	-0.01407	0.002757	0.004403	0.016081	-0.003225	0.001843
0.05	0.006469	0.003025	-0.005523	0.00152	0.003394	0.011599	-0.004952	-0.001065
0.0505	0.00601	0.003375	0.006167	0.000134	0.003562	-0.000419	-0.005321	-0.000916
0.051	0.006352	0.001844	0.019325	-0.000858	0.005374	-0.010316	-0.005467	0.002416
0.0515	0.011315	-0.000565	0.031565	-0.000809	0.005947	-0.009655	-0.004696	0.004939
0.052	0.019096	-0.003208	0.039925	0.000104	0.003796	-0.003083	-0.002323	0.004058
0.0525	0.019889	-0.004829	0.041973	0.000386	0.000925	-0.002235	-0.000236	0.002391
0.053	0.007749	-0.00443	0.036703	-0.000274	0.000402	-0.008802	-0.000487	0.003007
0.0535	-0.007253	-0.002325	0.02711	-0.000557	0.002648	-0.01073	-0.002117	0.003928
0.054	-0.009737	-0.000268	0.019911	0.000793	0.004697	0.001364	-0.003612	0.002577
0.0545	0.001952	0.000764	0.018515	0.003271	0.004371	0.01891	-0.004708	-0.000441
0.055	0.016253	0.001977	0.017622	0.004304	0.002497	0.024532	-0.004635	-0.003451
0.0555	0.02425	0.00325	0.008808	0.002735	0.000472	0.013428	-0.003239	-0.004693
0.056	0.027789	0.002183	-0.007399	0.001425	-0.000892	-0.002953	-0.002046	-0.002802
0.0565	0.030601	-0.001113	-0.020251	0.002592	-0.001236	-0.010237	-0.001767	0.001817
0.057	0.027222	-0.002815	-0.020813	0.00428	-0.001541	-0.002873	-0.001329	0.006283
0.0575	0.007617	-0.001176	-0.010624	0.005305	-0.003027	0.011825	-0.000126	0.007643
0.058	-0.025167	0.001394	0.001066	0.006359	-0.005199	0.020655	0.000222	0.005891
0.0585	-0.048861	0.002664	0.006736	0.006046	-0.00685	0.019093	-0.001786	0.003363
0.059	-0.043574	0.002088	0.006176	0.003864	-0.007865	0.017238	-0.003696	0.002629
0.0595	-0.015749	0.000416	0.003403	0.001804	-0.008909	0.028238	-0.00167	0.00367
0.06	0.009337	-0.000749	0.002185	4.7e-05	-0.00967	0.048348	0.004031	0.003521
0.0605	0.016136	-0.001891	0.004079	-0.001671	-0.009244	0.051652	0.009741	0.001165
0.061	0.011414	-0.004335	0.007496	-0.002098	-0.0083	0.014402	0.012646	-0.00189
0.0615	0.008802	-0.006339	0.009021	-0.001661	-0.007948	-0.051134	0.012891	-0.005515
0.062	0.009979	-0.006116	0.007553	-0.001829	-0.007937	-0.096759	0.012348	-0.008868
0.0625	0.007856	-0.005339	0.006361	-0.002162	-0.007734	-0.085933	0.011867	-0.008689
0.063	0.002267	-0.005369	0.009054	-0.00222	-0.006914	-0.037218	0.010328	-0.005252
0.0635	0.000274	-0.00501	0.01431	-0.002489	-0.005211	-0.003702	0.007018	-0.003436
0.064	0.001653	-0.003643	0.017701	-0.00158	-0.003267	-0.011396	0.003445	-0.004446
0.0645	-0.004122	-0.001718	0.018207	0.001345	-0.00205	-0.037467	0.001849	-0.005753
0.065	-0.024017	0.000238	0.018226	0.003455	-0.002319	-0.051437	0.00311	-0.007464
0.0655	-0.049589	0.001092	0.01858	0.003164	-0.003767	-0.051987	0.004965	-0.009185
0.066	-0.061429	8.2e-05	0.017524	0.002144	-0.004396	-0.050364	0.004	-0.007934
0.0665	-0.04931	-0.0022	0.013094	0.000967	-0.003763	-0.045677	0.000872	-0.003863
0.067	-0.02518	-0.004034	0.005436	-0.001073	-0.003769	-0.034823	-0.000812	-0.001336
0.0675	-0.008684	-0.003815	-0.003209	-0.002857	-0.003968	-0.025848	0.000313	-0.002609
0.068	-0.004432	-0.001816	-0.010926	-0.002643	-0.002302	-0.02707	0.002868	-0.0043
0.0685	-0.002073	0.000268	-0.016797	-0.001309	0.000599	-0.033923	0.004745	-0.002545
0.069	0.004718	0.002065	-0.020009	-0.001446	0.002697	-0.03577	0.004183	0.001266
0.0695	0.011019	0.004955	-0.020437	-0.003504	0.003126	-0.029684	0.001015	0.002683
0.07	0.01245	0.008154	-0.018697	-0.004243	0.002378	-0.019148	-0.003045	0.001061
0.0705	0.012202	0.009071	-0.015303	-0.001878	0.00187	-0.001722	-0.005653	-0.000305
0.071	0.014218	0.007894	-0.011603	0.000637	0.002607	0.029803	-0.005393	0.000123
0.0715	0.017017	0.006309	-0.009694	0.00159	0.003934	0.069526	-0.00303	0.000939
0.0720000000000001	0.016967	0.004891	-0.009976	0.002212	0.004892	0.094887	-3.7e-05	0.000185
0.0725000000000001	0.013476	0.003542	-0.010559	0.002681	0.005216	0.089876	0.002571	-0.00139
0.0730000000000001	0.009077	0.002345	-0.009689	0.002685	0.004335	0.064229	0.003353	-0.000538
0.0735000000000001	0.006675	0.002367	-0.007967	0.002773	0.002788	0.041555	0.002167	0.003187
0.0740000000000001	0.007163	0.003196	-0.006772	0.002935	0.003517	0.032851	0.000611	0.005734
0.0745000000000001	0.009109	0.002143	-0.005777	0.002466	0.008006	0.031615	-9.9e-05	0.003811
0.0750000000000001	0.008727	-0.000609	-0.004527	0.001758	0.013096	0.030266	0.000742	0.000966
0.0755000000000001	0.001138	-0.001554	-0.004077	0.001215	0.015095	0.027935	0.002597	0.002434
0.0760000000000001	-0.013857	0.000135	-0.004908	0.000602	0.014069	0.024244	0.003442	0.005445
0.0765000000000001	-0.027239	0.00173	-0.00558	0.000687	0.011866	0.017578	0.002621	0.004929
0.0770000000000001	-0.025296	0.001954	-0.004847	0.001174	0.010209	0.009532	0.001852	0.002255
0.0775000000000001	-0.003885	0.001812	-0.003284	0.001174	0.010124	0.002623	0.002923	0.001294
0.0780000000000001	0.022587	0.001491	-0.001435	0.00204	0.010546	-0.002826	0.005687	0.002538
0.0785000000000001	0.034197	0.000748	0.000631	0.004061	0.009601	-0.003721	0.00777	0.002627
0.0790000000000001	0.026084	7.4e-05	0.001919	0.004476	0.007357	0.005061	0.00669	-0.000387
0.0795000000000001	0.01011	-0.000656	0.002133	0.001583	0.005484	0.020505	0.002695	-0.002674
0.0800000000000001	-0.000251	-0.001742	0.002483	-0.002354	0.004725	0.030623	-0.001912	-0.000823
0.0805000000000001	-0.000672	-0.001844	0.003874	-0.004816	0.004705	0.027108	-0.005364	0.001963
0.0810000000000001	0.004206	2.3e-05	0.005824	-0.005738	0.005254	0.014948	-0.007156	0.002099
0.0815000000000001	0.00406	0.002029	0.006508	-0.004848	0.006103	0.007403	-0.007871	0.001468
0.0820000000000001	-0.009438	0.002615	0.00479	-0.003261	0.006391	0.010754	-0.008115	0.002365
0.0825000000000001	-0.031392	0.002668	0.002452	-0.003594	0.005435	0.01772	-0.008107	0.004228
0.0830000000000001	-0.045126	0.002346	0.002264	-0.005792	0.003711	0.018758	-0.009382	0.005778
0.0835000000000001	-0.038979	0.000842	0.003391	-0.009148	0.001973	0.012779	-0.013375	0.005553
0.0840000000000001	-0.019262	-0.001152	0.002933	-0.013608	0.000195	0.004825	-0.018275	0.003767
0.0845000000000001	-0.003465	-0.003007	0.002018	-0.017423	-0.001535	-0.001589	-0.020462	0.002768
0.0850000000000001	-0.000632	-0.004814	0.002953	-0.01957	-0.002906	-0.007805	-0.017457	0.003543
0.0855000000000001	-0.004668	-0.005625	0.003592	-0.022187	-0.003336	-0.015904	-0.010397	0.004629
0.0860000000000001	-0.007513	-0.004778	0.001581	-0.026106	-0.001892	-0.026258	-0.004802	0.004435
0.0865000000000001	-0.008016	-0.003165	-0.00086	-0.028653	0.000178	-0.038451	-0.004485	0.002555
0.0870000000000001	-0.006694	-0.00205	-0.000374	-0.029157	0.000228	-0.049191	-0.006781	-0.001176
0.0875000000000001	-0.0032	-0.001766	0.001659	-0.029588	-0.001707	-0.052145	-0.008939	-0.004883
0.0880000000000001	0.000729	-0.001527	0.000613	-0.02895	-0.003931	-0.043239	-0.012764	-0.004589
0.0885000000000001	0.003304	-0.001075	-0.00415	-0.023261	-0.005272	-0.024776	-0.017826	-0.000685
0.0890000000000001	0.005708	-0.001461	-0.00967	-0.010625	-0.004611	-0.002671	-0.018745	0.002029
0.0895000000000001	0.009546	-0.002881	-0.015187	0.006156	-0.00251	0.014065	-0.012953	0.001888
0.0900000000000001	0.013912	-0.004086	-0.021906	0.021754	-0.002029	0.008158	-0.003621	0.001284
0.0905000000000001	0.017239	-0.004232	-0.030707	0.033195	-0.004796	-0.033432	0.004988	0.001404
0.0910000000000001	0.019356	-0.003204	-0.042146	0.041294	-0.008301	-0.091428	0.010244	0.001114
0.0915000000000001	0.020259	-0.001617	-0.054961	0.046013	-0.008923	-0.119072	0.012185	-0.000422
0.0920000000000001	0.019812	-7.6e-05	-0.064546	0.045964	-0.006988	-0.090292	0.01344	-0.002652
0.0925000000000001	0.018608	0.001858	-0.067046	0.042912	-0.006406	-0.030017	0.015136	-0.004021
0.0930000000000001	0.017605	0.003783	-0.067221	0.039543	-0.008562	0.014624	0.014937	-0.003807
0.0935000000000001	0.016844	0.00433	-0.078583	0.036136	-0.010509	0.023222	0.011671	-0.003188
0.0940000000000001	0.014992	0.003505	-0.108049	0.031864	-0.009507	0.013665	0.007828	-0.003441
0.0945000000000001	0.012186	0.002358	-0.136957	0.025561	-0.006292	0.014838	0.005544	-0.004913
0.0950000000000001	0.010613	0.001311	-0.12575	0.018303	-0.004575	0.037142	0.003946	-0.006559
0.0955000000000001	0.010235	-0.000195	-0.051817	0.013727	-0.006251	0.067859	0.001957	-0.006248
0.0960000000000001	0.008297	-0.002072	0.057331	0.012992	-0.007545	0.090387	0.000761	-0.004072
0.0965000000000001	0.003009	-0.002765	0.143828	0.013649	-0.005	0.099306	0.001525	-0.002203
0.0970000000000001	-0.00425	-0.001353	0.173476	0.012576	-0.001281	0.094497	0.002472	-0.001268
0.0975000000000001	-0.010079	0.001721	0.156828	0.007861	0.000242	0.071708	0.00064	-0.000585
0.0980000000000001	-0.012357	0.004629	0.12179	-0.000534	0.000184	0.02866	-0.003543	-0.000158
0.0985000000000001	-0.011896	0.004593	0.084086	-0.009698	-4.3e-05	-0.021672	-0.006093	-0.000359
0.0990000000000001	-0.010755	0.002205	0.048405	-0.01505	-0.000668	-0.055993	-0.004913	-0.000773
0.0995000000000001	-0.009224	0.001368	0.02598	-0.016304	-0.002146	-0.064453	-0.002127	-0.001509
0.1	-0.006933	0.003098	0.035936	-0.017867	-0.004078	-0.0587	8.6e-05	-0.003502
0.1005	-0.005106	0.005034	0.08097	-0.022549	-0.005185	-0.048855	0.002474	-0.006214
0.101	-0.00399	0.00553	0.126967	-0.029414	-0.004455	-0.028824	0.005098	-0.008009
0.1015	-0.002807	0.004093	0.126378	-0.035166	-0.003263	0.003258	0.005163	-0.007183
0.102	-0.002913	0.001258	0.070917	-0.038387	-0.003126	0.032512	0.002065	-0.002977
0.1025	-0.006449	-0.000619	0.003579	-0.043455	-0.002388	0.04658	-0.000934	0.002429
0.103	-0.012835	-0.000209	-0.029987	-0.053635	-4e-05	0.044534	-0.001166	0.005632
0.1035	-0.018668	0.000507	-0.024518	-0.063272	0.000691	0.025295	0.000968	0.005408
0.104	-0.020835	-0.000657	-0.004223	-0.065464	-0.002417	-0.008924	0.003588	0.000977
0.1045	-0.018836	-0.002916	0.01076	-0.060682	-0.006356	-0.039097	0.005941	-0.009731
0.105	-0.014083	-0.004416	0.015426	-0.05128	-0.007865	-0.042805	0.007478	-0.023595
0.1055	-0.006507	-0.0049	0.01197	-0.037587	-0.007016	-0.02161	0.007099	-0.03145
0.106	0.004667	-0.004818	0.004606	-0.020572	-0.004603	0.001673	0.005394	-0.028284
0.1065	0.015078	-0.004183	-0.002311	-0.001032	-0.001394	0.010882	0.003605	-0.016792
0.107	0.018825	-0.002925	-0.008049	0.019195	0.001176	0.009449	0.001666	-0.00378
0.1075	0.017415	-0.002131	-0.015883	0.035809	0.002102	0.006726	0.000168	0.004539
0.108	0.017128	-0.003276	-0.027276	0.045575	0.001708	0.00513	0.000404	0.00806
0.1085	0.021082	-0.00528	-0.038816	0.048145	0.000919	0.003269	0.001616	0.011437
0.109	0.027843	-0.006023	-0.04707	0.046797	-0.000231	0.000722	0.001784	0.015427
0.1095	0.033854	-0.005378	-0.050667	0.046411	-0.001805	-0.000806	0.000506	0.015321
0.11	0.036044	-0.004054	-0.046579	0.048745	-0.002252	0.002714	-0.000951	0.011562
0.1105	0.035258	-0.002213	-0.032174	0.051911	-6.2e-05	0.013838	-0.001863	0.010356
0.111	0.035102	0.000247	-0.012625	0.053135	0.003735	0.027372	-0.002237	0.010886
0.1115	0.036609	0.002561	-0.000499	0.052231	0.006269	0.032369	-0.001605	0.008308
0.112	0.038686	0.003474	-0.005362	0.050657	0.005826	0.024482	-0.000654	0.005293
0.1125	0.0406	0.003182	-0.026059	0.047723	0.004208	0.009707	-0.001889	0.007369
0.113	0.040676	0.002439	-0.051491	0.04187	0.004289	-0.005548	-0.005919	0.013564
0.1135	0.035276	0.001773	-0.065758	0.032971	0.005821	-0.019511	-0.010051	0.017052
0.114	0.019831	0.002287	-0.058322	0.021562	0.006632	-0.029289	-0.011468	0.013717
0.1145	-0.00586	0.003934	-0.035055	0.008919	0.005598	-0.028255	-0.009541	0.00808
0.115	-0.031509	0.004692	-0.015548	-0.000808	0.003414	-0.016223	-0.00625	0.00667
0.1155	-0.042129	0.003574	-0.01265	-0.00389	0.001944	-0.006083	-0.003449	0.008372
0.116	-0.034013	0.002282	-0.015768	-0.00352	0.002074	-0.009134	0.000542	0.007556
0.1165	-0.018777	0.002667	-0.00444	-0.005986	0.003109	-0.017405	0.007486	0.003396
0.117	-0.008683	0.004242	0.021476	-0.012783	0.003573	-0.011772	0.014842	-8.8e-05
0.1175	-0.004912	0.004909	0.039987	-0.020383	0.002054	0.009949	0.017857	-0.000721
0.118	-0.004559	0.003955	0.040863	-0.026365	-0.000396	0.025776	0.013842	-0.000405
0.1185	-0.012755	0.00282	0.04591	-0.033629	-0.001287	0.020296	0.004895	-0.001132
0.119	-0.036679	0.002233	0.078473	-0.043637	-0.000778	0.007626	-0.003301	-0.001623
0.1195	-0.06835	0.001878	0.12144	-0.050811	-0.000355	0.009712	-0.006088	-0.00016
0.12	-0.086619	0.001665	0.128416	-0.04921	-0.000129	0.024326	-0.003069	0.001435
0.1205	-0.081333	0.000898	0.07706	-0.039275	4.6e-05	0.032497	0.00099	0.00064
0.121	-0.065338	-0.000795	-0.005685	-0.027063	-0.000163	0.029934	6.1e-05	-0.001517
0.1215	-0.055274	-0.001999	-0.073616	-0.017228	-0.00075	0.029418	-0.005569	-0.002764
0.122	-0.050776	-0.001658	-0.103492	-0.008802	-0.001074	0.036509	-0.00985	-0.00291
0.1225	-0.04125	-0.000853	-0.105561	-0.000169	-0.001559	0.042106	-0.008529	-0.002557
0.123	-0.023217	-0.000831	-0.104407	0.007344	-0.002606	0.037181	-0.002867	-0.001327
0.1235	-0.003543	-0.001663	-0.113453	0.012343	-0.001811	0.022326	0.001006	0.000661
0.124	0.008386	-0.00295	-0.122643	0.015456	0.001137	0.003141	-0.002033	0.002209
0.1245	0.009302	-0.004025	-0.109973	0.016324	0.002388	-0.016069	-0.01013	0.002496
0.125	0.004783	-0.004621	-0.067891	0.013214	0.001138	-0.034335	-0.016721	0.001571
0.1255	0.001876	-0.005478	-0.014014	0.008583	0.000459	-0.053951	-0.015561	0.001374
0.126	0.001851	-0.006607	0.029088	0.007038	0.001622	-0.077619	-0.005864	0.003449
0.1265	0.002799	-0.006286	0.055996	0.007704	0.003342	-0.103788	0.005853	0.005282
0.127	0.002773	-0.004068	0.074272	0.006972	0.004096	-0.12281	0.012261	0.004861
0.1275	9.8e-05	-0.00247	0.086652	0.0045	0.002848	-0.118955	0.011596	0.005171
0.128	-0.002885	-0.002371	0.087233	0.001591	0.000227	-0.084554	0.008315	0.008317
0.1285	-0.001453	-0.001223	0.075123	-0.000654	-0.001615	-0.035616	0.007677	0.01129
0.129	0.003488	0.001161	0.060259	-0.001091	-0.00178	-0.004439	0.008916	0.011423
0.1295	0.00717	0.002623	0.051452	-0.000196	-0.000195	-0.00573	0.008328	0.009167
0.13	0.008397	0.002984	0.048442	0.000874	0.002614	-0.016236	0.006268	0.006323
0.1305	0.008702	0.002398	0.04784	0.002431	0.004144	-0.004139	0.005294	0.004872
0.131	0.008849	0.00179	0.048746	0.003833	0.003956	0.028204	0.005514	0.003948
0.1315	0.009009	0.002955	0.05061	0.003405	0.00507	0.048955	0.004408	0.001513
0.132	0.008953	0.004345	0.051312	0.001901	0.007586	0.03967	-0.000132	-0.001045
0.1325	0.008053	0.003458	0.049862	0.000332	0.008067	0.017197	-0.005323	-0.001347
0.133	0.006784	0.001149	0.04502	-0.002334	0.006549	0.009978	-0.005284	-0.000275
0.1335	0.006513	-0.000454	0.031299	-0.004863	0.006251	0.023194	0.000303	-0.000597
0.134	0.007306	-0.000832	0.005832	-0.004283	0.006756	0.036684	0.005202	-0.002424
0.1345	0.008525	-0.000802	-0.022953	-0.002475	0.005681	0.034607	0.005454	-0.004276
0.135	0.009698	-0.001244	-0.041806	-0.003814	0.003631	0.022715	0.003931	-0.006049
0.1355	0.01036	-0.002194	-0.04578	-0.007877	0.002026	0.014836	0.004805	-0.007391
0.136	0.011773	-0.002436	-0.041063	-0.011151	0.000525	0.016903	0.006578	-0.008382
0.1365	0.014966	-0.002055	-0.036109	-0.011567	-0.001152	0.023706	0.005137	-0.009323
0.137	0.018071	-0.002912	-0.034257	-0.008834	-0.001767	0.025887	0.001292	-0.008454
0.1375	0.019408	-0.004557	-0.037304	-0.005109	-0.001351	0.022354	-0.00096	-0.005553
0.138	0.019249	-0.004662	-0.048014	-0.00323	-0.001522	0.019788	-0.000437	-0.00368
0.1385	0.01878	-0.002989	-0.059688	-0.00214	-0.001681	0.019707	0.001136	-0.004048
0.139	0.019594	-0.001384	-0.056492	0.001288	-3.3e-05	0.016828	0.002527	-0.004469
0.1395	0.021867	-0.000553	-0.037616	0.006202	0.00272	0.009855	0.003489	-0.004321
0.14	0.023163	0.0008	-0.023316	0.008472	0.003626	0.003652	0.003111	-0.005518
0.1405	0.021429	0.003311	-0.02596	0.006953	0.00132	0.000504	0.00106	-0.008053
0.141	0.018271	0.005539	-0.03282	0.00433	-0.001523	-0.001992	-0.001371	-0.010034
0.1415	0.01661	0.005838	-0.025352	0.002104	-0.001659	-0.004231	-0.00292	-0.010214
0.142	0.016118	0.004492	-0.003664	-0.001592	0.00049	-0.00256	-0.002835	-0.008193
0.1425	0.014038	0.002844	0.01643	-0.00872	0.001873	0.004592	-0.001342	-0.00544
0.143	0.009861	0.001492	0.0253	-0.017392	0.000809	0.012474	-0.000137	-0.004467
0.1435	0.00571	0.000239	0.02786	-0.023206	-0.001456	0.0149	-4.3e-05	-0.005036
0.144	0.002758	-0.00042	0.032087	-0.02461	-0.002823	0.012842	0.000304	-0.005269
0.1445	0.00048	0.000467	0.040515	-0.025025	-0.001867	0.014009	0.001967	-0.005863
0.145	-0.001461	0.001353	0.050084	-0.02791	0.001177	0.020501	0.003734	-0.007805
0.1455	-0.002852	0.000346	0.051611	-0.031654	0.003781	0.02445	0.00337	-0.00867
0.146	-0.003862	-0.000935	0.032698	-0.032327	0.004165	0.020229	0.000152	-0.006742
0.1465	-0.004291	-0.000961	-0.011924	-0.027474	0.003588	0.010153	-0.003883	-0.004843
0.147	-0.002575	-0.001099	-0.067648	-0.016061	0.003978	-0.002266	-0.006226	-0.005228
0.1475	0.001992	-0.002541	-0.100692	0.000412	0.005518	-0.015572	-0.006774	-0.005328
0.148	0.007405	-0.003788	-0.084025	0.017509	0.006928	-0.028017	-0.006513	-0.002544
0.1485	0.011122	-0.002118	-0.02631	0.030097	0.007193	-0.034821	-0.00617	0.00087
0.149	0.011902	0.001978	0.031705	0.03533	0.00577	-0.031616	-0.006852	0.00114
0.1495	0.010067	0.004815	0.05139	0.034715	0.001651	-0.022067	-0.008734	-0.001573
0.15	0.007475	0.00529	0.02363	0.030897	-0.004342	-0.013878	-0.010172	-0.004383
0.1505	0.005278	0.005113	-0.031406	0.024656	-0.007857	-0.009138	-0.009969	-0.006148
0.151	0.003081	0.004688	-0.080043	0.018194	-0.005892	-0.006787	-0.009207	-0.006884
0.1515	0.000869	0.003477	-0.09678	0.015101	-0.001426	-0.008613	-0.009461	-0.005298
0.152	-0.00043	0.001774	-0.086068	0.015227	0.000328	-0.016346	-0.009705	-0.001915
0.1525	-0.000175	0.000287	-0.079367	0.015767	-0.002429	-0.026407	-0.007866	-0.000452
0.153	0.000541	-0.000697	-0.100127	0.015739	-0.007579	-0.03044	-0.005157	-0.002103
0.1535	0.00041	-0.001149	-0.138113	0.015231	-0.010789	-0.021149	-0.004238	-0.004608
0.154	-0.000647	-0.002089	-0.164675	0.014885	-0.009924	0.00051	-0.004667	-0.006265
0.1545	-0.0031	-0.004774	-0.161877	0.014976	-0.008114	0.024924	-0.004566	-0.006608
0.155	-0.006329	-0.00679	-0.128622	0.012939	-0.008697	0.042864	-0.004221	-0.00613
0.1555	-0.008267	-0.004964	-0.070149	0.007973	-0.010906	0.052299	-0.00454	-0.005399
0.156	-0.00969	-0.001394	0.004149	0.003917	-0.012152	0.054679	-0.00441	-0.004668
0.1565	-0.012727	7.2e-05	0.076009	0.002797	-0.011356	0.049234	-0.003358	-0.004695
0.157	-0.015751	-0.000874	0.128459	0.001741	-0.00965	0.035804	-0.002953	-0.005063
0.1575	-0.015997	-0.002271	0.164091	-0.001184	-0.009116	0.018313	-0.00279	-0.004007
0.158	-0.014212	-0.002202	0.193508	-0.003578	-0.010545	0.001221	-0.000643	-0.001505
0.1585	-0.012606	0.000114	0.203186	-0.004147	-0.011594	-0.013476	0.003588	0.000955
0.159	-0.012272	0.003221	0.165311	-0.004102	-0.010523	-0.026877	0.008022	0.00305
0.1595	-0.012536	0.005008	0.087801	-0.003727	-0.009218	-0.038759	0.010524	0.004468
0.16	-0.011146	0.005497	0.018399	-0.002979	-0.00882	-0.042337	0.010002	0.004146
0.1605	-0.008093	0.005942	-0.015804	-0.001413	-0.00854	-0.033031	0.007892	0.003731
0.161	-0.004706	0.00643	-0.035695	0.000222	-0.007281	-0.018096	0.006572	0.005887
0.1615	0.001729	0.005975	-0.061116	-0.000471	-0.003029	-0.008689	0.006226	0.00913
0.162	0.012512	0.003851	-0.073111	-0.002651	0.004268	-0.006811	0.005494	0.010621
0.1625	0.019737	0.000228	-0.045087	-0.003568	0.010893	-0.006615	0.004298	0.010372
0.163	0.015171	-0.002969	0.020345	-0.003883	0.013361	-0.005238	0.004102	0.00865
0.1635	0.002179	-0.003579	0.103632	-0.005437	0.011144	-0.004089	0.005659	0.005225
0.164	-0.008484	-0.002699	0.186783	-0.006459	0.006301	-0.004625	0.007448	0.002705
0.1645	-0.00945	-0.002174	0.241433	-0.005288	0.001976	-0.007768	0.007198	0.003461
0.165	-0.002266	-0.000934	0.231358	-0.003908	-0.000349	-0.012982	0.004371	0.004913
0.1655	0.005162	0.001197	0.154956	-0.002839	-0.001464	-0.019061	0.000466	0.004509
0.166	0.007562	0.001563	0.06229	-0.001552	-0.002219	-0.02422	-0.001759	0.004122
0.1665	0.005776	-0.000896	0.006264	-0.001675	-0.001938	-0.025243	-0.000819	0.005641
0.167	0.002674	-0.00441	-0.006141	-0.002492	0.000867	-0.021512	0.001053	0.008058
0.1675	0.000458	-0.006715	-0.002386	-0.001186	0.005135	-0.016401	0.000807	0.00946
0.168	-0.000399	-0.005851	-0.002724	0.001312	0.006898	-0.012867	-0.000922	0.008844
0.1685	-0.001124	-0.001887	-0.007485	0.001922	0.004855	-0.011519	-0.001256	0.007283
0.169	-0.002821	0.00198	-0.01615	0.000479	0.002268	-0.013148	-5.7e-05	0.007197
0.1695	-0.007121	0.003222	-0.031056	-0.00244	0.002365	-0.019196	0.00026	0.008659
0.17	-0.01766	0.002213	-0.040364	-0.009162	0.004454	-0.028116	-0.000775	0.009202
0.1705	-0.035031	0.000403	-0.02268	-0.021839	0.005049	-0.03487	-0.000871	0.007789
0.171	-0.050788	0.00032	0.02213	-0.037797	0.002922	-0.035488	0.001375	0.005087
0.1715	-0.053453	0.003426	0.059734	-0.049605	0.000846	-0.030967	0.003895	0.001951
0.172	-0.041812	0.007006	0.053681	-0.052441	0.001882	-0.025051	0.003848	-0.000795
0.1725	-0.027598	0.007583	0.007803	-0.049473	0.005214	-0.018571	0.00135	-0.002555
0.173	-0.021579	0.004559	-0.039673	-0.044141	0.006474	-0.008273	-0.001559	-0.00272
0.1735	-0.021097	0.000509	-0.060658	-0.034617	0.004283	0.008818	-0.003381	-0.002414
0.174	-0.017637	-0.001329	-0.058836	-0.019993	0.002893	0.028395	-0.003158	-0.003876
0.1745	-0.010217	-0.001571	-0.051647	-0.002882	0.004692	0.038149	-0.000839	-0.005866
0.175	-0.003394	-0.003154	-0.047748	0.013999	0.006028	0.031001	0.001237	-0.005126
0.1755	0.002875	-0.005609	-0.045331	0.027981	0.003717	0.016979	0.000162	-0.002157
0.176	0.013207	-0.005815	-0.043253	0.035947	-0.000522	0.013895	-0.003071	-0.000136
0.1765	0.027959	-0.003525	-0.044361	0.037993	-0.00382	0.027205	-0.003895	9.1e-05
0.177	0.041765	-0.001187	-0.049109	0.037643	-0.004864	0.044954	-0.000651	-0.001232
0.1775	0.04855	-7.6e-05	-0.052653	0.037239	-0.003369	0.052725	0.002688	-0.004016
0.178	0.045092	-0.000885	-0.049693	0.037091	-0.000835	0.048559	0.002437	-0.005442
0.1785	0.034213	-0.003275	-0.040405	0.035373	0.000511	0.040906	0.00018	-0.003847
0.179	0.022663	-0.004276	-0.029843	0.029916	0.000791	0.036802	-0.000349	-0.002282
0.1795	0.014855	-0.002568	-0.023212	0.023521	0.001322	0.035905	0.0015	-0.002335
0.18	0.011701	-0.000816	-0.023059	0.021413	0.002343	0.03383	0.003338	-0.001559
0.1805	0.012706	-0.001052	-0.027497	0.023948	0.00411	0.028008	0.003128	0.0017
0.181	0.015754	-0.001728	-0.031149	0.026094	0.005884	0.019244	0.000991	0.005734
0.1815	0.016991	-0.00097	-0.030308	0.023254	0.004718	0.010189	-0.001103	0.007799
0.182	0.014768	5e-05	-0.02514	0.015123	0.000617	0.004242	-0.001601	0.007279
0.1825	0.011746	-0.000718	-0.014681	0.004838	-0.002306	0.003155	-0.001481	0.006125
0.183	0.010203	-0.002115	0.007567	-0.002778	-0.002763	0.005126	-0.002458	0.006322
0.1835	0.008153	-0.00121	0.04535	-0.006264	-0.002479	0.006946	-0.004372	0.006494
0.184	0.000932	0.000973	0.08256	-0.008478	-0.002055	0.006478	-0.005827	0.004514
0.1845	-0.014362	0.001011	0.085672	-0.01003	-0.002319	0.003835	-0.005718	0.002098
0.185	-0.033013	-0.00019	0.03921	-0.009447	-0.004504	0.001496	-0.003584	0.001381
0.1855	-0.042379	-0.000281	-0.027278	-0.007102	-0.007571	0.001682	-0.000187	0.001781
0.186	-0.033673	-0.000848	-0.067833	-0.004409	-0.008207	0.004069	0.002524	0.002207
0.1865	-0.014566	-0.003007	-0.071138	-0.001746	-0.005905	0.005394	0.003524	0.002899
0.187	-0.003075	-0.00455	-0.060843	0.001074	-0.005103	0.002464	0.003524	0.004604
0.1875	-0.005664	-0.004129	-0.055348	0.002846	-0.0076	-0.002856	0.003121	0.006121
0.188	-0.010535	-0.002264	-0.055126	0.002221	-0.009671	-0.006152	0.002297	0.005897
0.1885	-0.006746	0.000558	-0.060224	-0.00047	-0.008327	-0.006937	0.001441	0.005397
0.189	0.002067	0.002945	-0.073581	-0.00292	-0.004448	-0.007767	0.00101	0.00675
0.1895	0.007106	0.002813	-0.09048	-0.003364	-0.000614	-0.009502	0.00118	0.007982
0.19	0.006485	0.00092	-0.100706	-0.003819	0.001835	-0.011108	0.001733	0.005301
0.1905	0.003839	0.000341	-0.095201	-0.006251	0.003009	-0.01258	0.001504	0.000455
0.191	0.001895	0.002102	-0.060728	-0.009342	0.00336	-0.014232	8.3e-05	-0.001446
0.1915	0.001006	0.004529	0.016464	-0.011215	0.003199	-0.014212	-0.00085	0.000186
0.192	0.00108	0.005335	0.126349	-0.011591	0.003034	-0.011285	0.000216	0.002384
0.1925	0.001676	0.004161	0.22859	-0.01085	0.003663	-0.007913	0.002133	0.002974
0.193	0.002007	0.003335	0.281943	-0.008766	0.004546	-0.006551	0.002351	0.00132
0.1935	0.002728	0.003081	0.269373	-0.005888	0.004185	-0.006674	0.001134	-0.001721
0.194	0.004593	0.000883	0.197208	-0.002701	0.002581	-0.006354	0.00147	-0.004125
0.1945	0.006663	-0.001244	0.09031	0.000885	0.001414	-0.002372	0.004151	-0.005264
0.195	0.007712	0.000743	-0.01551	0.003637	0.001382	0.006502	0.006652	-0.006115
0.1955	0.006939	0.004184	-0.096502	0.004113	0.001211	0.014771	0.006813	-0.005959
0.196	0.004539	0.00435	-0.150502	0.001548	0.000301	0.015847	0.005249	-0.00398
0.1965	0.001925	0.001586	-0.17558	-0.002785	-0.000542	0.00918	0.003791	-0.00156
0.197	0.000343	-0.001201	-0.162731	-0.005113	-0.000432	-0.001244	0.002581	0.000655
0.1975	-0.000613	-0.00179	-0.118029	-0.003326	0.001234	-0.009902	0.000243	0.003925
0.198	-0.002585	-0.00018	-0.066773	0.000551	0.004349	-0.012022	-0.002446	0.007316
0.1985	-0.005224	0.001327	-0.027087	0.002958	0.007307	-0.007159	-0.002706	0.007387
0.199	-0.006299	0.000778	0.005375	0.002504	0.007799	-0.000197	-0.000941	0.005656
0.1995	-0.00566	-0.001562	0.041235	-0.000532	0.006305	0.002911	-0.000489	0.006873
0.2	-0.005347	-0.004541	0.076148	-0.005151	0.005505	0.000363	-0.002843	0.009499
0.2005	-0.006684	-0.007731	0.092478	-0.008893	0.00546	-0.004901	-0.006965	0.008313
0.201	-0.008578	-0.009808	0.079709	-0.010582	0.005165	-0.008406	-0.010544	0.002955
0.2015	-0.00894	-0.008902	0.048062	-0.010508	0.005695	-0.008039	-0.011214	-0.00162
0.202	-0.007354	-0.005383	0.017883	-0.008239	0.007265	-0.005821	-0.009441	-0.002165
0.2025	-0.00515	-0.001659	-0.000312	-0.006226	0.007446	-0.004909	-0.008153	-0.001576
0.203	-0.004308	-0.000426	-0.005642	-0.010265	0.004606	-0.00593	-0.008333	-0.004054
0.2035	-0.006031	-0.00191	0.005053	-0.020841	0.000345	-0.007364	-0.008303	-0.008516
0.204	-0.008486	-0.003227	0.027976	-0.030384	-0.003311	-0.007915	-0.00591	-0.010167
0.2045	-0.008331	-0.002134	0.038552	-0.03364	-0.005344	-0.007855	-0.001041	-0.007857
0.205	-0.006039	0.000483	0.014202	-0.033626	-0.004491	-0.008444	0.002796	-0.005033
0.2055	-0.005756	0.001819	-0.02979	-0.033639	-0.001188	-0.010467	0.002944	-0.004985
0.206	-0.009256	0.001171	-0.052959	-0.032697	0.00161	-0.012993	0.00117	-0.008511
0.2065	-0.013399	0.001684	-0.043355	-0.031835	0.001103	-0.013889	-0.000197	-0.012482
0.207	-0.014346	0.005054	-0.034852	-0.03424	-0.002774	-0.012795	-0.000677	-0.013237
0.2075	-0.012299	0.008569	-0.060908	-0.036532	-0.006498	-0.01193	-7.3e-05	-0.011486
0.208	-0.009038	0.009836	-0.110953	-0.029222	-0.006543	-0.012176	0.002024	-0.008999
0.2085	-0.003452	0.009869	-0.145545	-0.008665	-0.003584	-0.011388	0.005184	-0.006175
0.209	0.005173	0.010892	-0.137103	0.017006	-0.001206	-0.008277	0.007021	-0.003615
0.2095	0.013616	0.012703	-0.080516	0.035795	-0.001512	-0.004078	0.006146	-0.002237
0.21	0.019344	0.012755	0.018051	0.043608	-0.002669	-0.000292	0.00496	-0.003079
0.2105	0.023238	0.009633	0.139042	0.045806	-0.001753	0.002398	0.004899	-0.004709
0.211	0.025907	0.003541	0.238848	0.047518	0.000548	0.003898	0.004309	-0.00398
0.2115	0.026246	-0.004243	0.263544	0.047929	0.000875	0.004371	0.002794	-0.00206
0.212	0.023889	-0.011149	0.19336	0.044368	-0.001588	0.004156	0.001552	-0.002996
0.2125	0.020686	-0.015201	0.071888	0.038404	-0.003679	0.004061	0.000734	-0.006567
0.213	0.01922	-0.015733	-0.028597	0.035878	-0.002449	0.005106	-0.000253	-0.008188
0.2135	0.020217	-0.013113	-0.077417	0.038555	0.00172	0.006967	-0.00092	-0.005673
0.214	0.020206	-0.010011	-0.103955	0.041309	0.005598	0.007273	-0.000685	-0.001616
0.2145	0.014914	-0.009094	-0.142706	0.03885	0.006222	0.004361	-0.000745	0.000456
0.215	0.006918	-0.008284	-0.1867	0.028945	0.00449	0.000369	-0.0017	-0.001951
0.2155	0.002217	-0.003487	-0.207413	0.014393	0.003211	-0.001137	-0.002264	-0.007415
0.216	0.001705	0.00467	-0.193705	0.003605	0.003375	-6e-05	-0.001629	-0.008847
0.2165	0.003409	0.011563	-0.1532	0.001665	0.003965	0.001035	0.000255	-0.003393
0.217	0.006185	0.014444	-0.098596	0.004448	0.003015	0.001512	0.002614	0.00122
0.2175	0.008106	0.013963	-0.048329	0.006146	-0.000169	0.002713	0.003594	-0.000296
0.218	0.007292	0.01138	-0.010655	0.005783	-0.003542	0.004533	0.002805	-0.002647
0.2185	0.0042	0.006892	0.050633	0.004305	-0.004542	0.005908	0.001544	-0.001331
0.219	0.000464	8.4e-05	0.182357	0.00297	-0.003282	0.006244	0.000414	0.001216
0.2195	-0.002075	-0.007332	0.33941	0.003779	-0.001842	0.004937	-0.000571	0.001811
0.22	-0.002011	-0.011495	0.391178	0.007082	-0.00126	0.003309	-0.001348	0.000339
0.2205	-0.001331	-0.011047	0.288189	0.011738	-0.001189	0.003516	-0.002401	-0.000713
0.221	-0.00323	-0.007167	0.136244	0.015408	-0.001306	0.004704	-0.004228	0.000309
0.2215	-0.006271	-0.000934	0.033563	0.014165	-0.001186	0.005125	-0.005807	0.001718
0.222	-0.008161	0.005657	-0.065746	0.007211	5.9e-05	0.004855	-0.005418	0.00192
0.2225	-0.010674	0.009661	-0.230231	-0.001818	0.002129	0.003979	-0.003626	0.002622
0.223	-0.014296	0.010319	-0.38507	-0.011015	0.002946	0.002004	-0.003199	0.00525
0.2235	-0.016019	0.009352	-0.39156	-0.020509	0.000832	-6.5e-05	-0.005238	0.006295
0.224	-0.014327	0.007187	-0.24594	-0.027133	-0.00308	-0.001353	-0.006802	0.002483
0.2245	-0.010115	0.004014	-0.081913	-0.028073	-0.004752	-0.002907	-0.004526	-0.002678
0.225	-0.005512	0.002737	0.008313	-0.026299	-0.001946	-0.004415	8.7e-05	-0.004535
0.2255	-0.003089	0.004568	0.059858	-0.024678	0.001625	-0.005686	0.002731	-0.003244
0.226	-0.002575	0.006081	0.144525	-0.022464	0.001554	-0.009247	0.002105	-0.001451
0.2265	-0.001812	0.003913	0.262677	-0.020173	-0.000763	-0.01529	0.000601	-0.001138
0.227	-0.000955	-0.00157	0.340953	-0.018935	-0.002328	-0.020429	0.000536	-0.001698
0.2275	-0.000745	-0.00777	0.315816	-0.016825	-0.003659	-0.023095	0.000801	-0.000815
0.228	-0.000104	-0.012136	0.206591	-0.012807	-0.005647	-0.023898	-0.000562	0.001077
0.2285	0.001281	-0.013232	0.094466	-0.009647	-0.007376	-0.022365	-0.00212	0.000986
0.229	0.001266	-0.012006	0.035681	-0.008483	-0.008338	-0.018302	-0.001592	-0.001223
0.2295	-0.001595	-0.011602	0.027005	-0.007851	-0.008567	-0.01279	0.000787	-0.00346
0.23	-0.005545	-0.014508	0.051929	-0.007552	-0.007556	-0.006517	0.002787	-0.005042
0.2305	-0.007907	-0.02016	0.104792	-0.007642	-0.005209	-0.00109	0.002447	-0.005045
0.231	-0.00804	-0.025163	0.155685	-0.007949	-0.002458	-0.00071	0.00052	-0.002052
0.2315	-0.007602	-0.026081	0.152418	-0.008687	-0.000465	-0.00979	-0.00091	0.002611
0.232	-0.00806	-0.022052	0.086523	-0.009644	0.000322	-0.025711	-0.000772	0.004947
0.2325	-0.008655	-0.012547	0.011406	-0.009836	0.000472	-0.033904	0.000861	0.003257
0.233	-0.008037	0.003476	-0.028062	-0.007659	0.000923	-0.018017	0.002409	0.001196
0.2335	-0.006216	0.021634	-0.045754	-0.003962	0.00247	0.019361	0.002141	0.002442
0.234	-0.004253	0.0338	-0.075594	-0.001886	0.004599	0.053174	-0.000149	0.005355
0.2345	-0.003058	0.038399	-0.116437	-0.002159	0.005113	0.06193	-0.003475	0.00643
0.235	-0.002518	0.038085	-0.140781	-0.003574	0.003208	0.050397	-0.005805	0.005132
0.2355	-0.002442	0.030747	-0.138527	-0.005162	0.000906	0.038281	-0.004828	0.003238
0.236	-0.003064	0.015255	-0.126134	-0.005533	-0.000167	0.033626	-0.000885	0.002925
0.2365	-0.003184	6.2e-05	-0.119248	-0.00377	-0.000716	0.027701	0.002045	0.005265
0.237	-0.001258	-0.004575	-0.115713	-0.001348	-0.001615	0.01457	0.00121	0.00711
0.2375	0.001545	3.7e-05	-0.106761	-0.000212	-0.002592	0.002534	-0.001068	0.003974
0.238	0.003238	0.003281	-0.092361	0.000879	-0.003145	0.00123	-0.000938	-0.001815
0.2385	0.00425	0.000269	-0.078721	0.004282	-0.001776	0.008371	0.001512	-0.003861
0.239	0.006027	-0.004038	-0.068411	0.009466	0.002618	0.014348	0.002254	-0.001388
0.2395	0.008176	-0.004914	-0.060744	0.01447	0.006767	0.013908	-0.000862	0.001359
0.24	0.008758	-0.002915	-0.055383	0.017527	0.006362	0.010424	-0.004265	0.001969
0.2405	0.007087	-2.9e-05	-0.050726	0.016831	0.002753	0.00931	-0.00326	0.001256
0.241	0.004304	0.002894	-0.045824	0.012985	0.000557	0.009286	0.000627	0.00064
0.2415	0.0015	0.004272	-0.044937	0.009653	0.000967	0.004875	0.001537	0.000729
0.242	0.000273	0.002275	-0.051223	0.008518	0.002094	-0.003498	-0.001379	0.000842
0.2425	0.001581	-0.001247	-0.056651	0.007533	0.002904	-0.008839	-0.003158	0.000226
0.243	0.002963	-0.002785	-0.048338	0.005515	0.003619	-0.007135	-0.001505	0.000303
0.2435	0.002594	-0.001605	-0.025838	0.002421	0.004192	-0.001563	0.001333	0.002021
0.244	0.001779	0.000132	-0.002923	-0.00307	0.003421	0.002382	0.003877	0.003494
0.2445	0.000944	-0.001009	0.010417	-0.00977	0.001565	0.001827	0.006359	0.003403
0.245	-9.7e-05	-0.004958	0.018078	-0.012554	0.001966	-0.001482	0.008102	0.002161
0.2455	3.7e-05	-0.007343	0.028371	-0.00907	0.004768	-0.003742	0.007497	0.000354
0.246	0.00205	-0.006543	0.042958	-0.002654	0.005134	-0.004428	0.004385	-0.000703
0.2465	0.004396	-0.005109	0.055766	0.0017	0.001635	-0.005335	0.001288	0.000726
0.247	0.00495	-0.004871	0.058637	-0.000394	-0.001324	-0.006187	0.000585	0.003987
0.2475	0.002636	-0.005652	0.047964	-0.009828	-0.000311	-0.005786	0.001759	0.006487
0.248	-0.001876	-0.00691	0.029775	-0.020428	0.002671	-0.004821	0.003194	0.007515
0.2485	-0.005539	-0.007566	0.016796	-0.024894	0.003911	-0.00453	0.004345	0.007455
0.249	-0.005841	-0.006089	0.015206	-0.022941	0.003089	-0.005183	0.004914	0.006126
0.2495	-0.005056	-0.002782	0.018626	-0.020022	0.001791	-0.006239	0.004616	0.004711
0.25	-0.00608	0.000455	0.018451	-0.020685	0.000802	-0.006664	0.003693	0.003956
0.2505	-0.007355	0.00219	0.013145	-0.022861	-0.000315	-0.006672	0.001976	0.002639
0.251	-0.006519	0.002323	0.004926	-0.020444	-0.00222	-0.007262	-0.0004	0.001319
0.2515	-0.003392	0.001839	-0.003757	-0.011615	-0.003222	-0.007533	-0.001225	0.00131
0.252	0.000919	0.001187	-0.007042	0.000255	-0.001576	-0.005625	0.001711	0.000664
0.2525	0.004854	-3.4e-05	0.000715	0.012987	0.000176	-0.001741	0.006468	-0.001897
0.253	0.007633	-0.000687	0.014479	0.026854	-0.001108	0.001278	0.008649	-0.003656
0.2535	0.009733	0.001865	0.021129	0.038897	-0.004419	0.001012	0.007117	-0.003555
0.254	0.011232	0.006459	0.013451	0.043389	-0.006879	-0.002071	0.00428	-0.003952
0.2545	0.01019	0.007931	-0.004889	0.037197	-0.006608	-0.005414	0.002853	-0.005432
0.255	0.005111	0.004987	-0.024041	0.020398	-0.003825	-0.006465	0.003814	-0.006447
0.2555	-0.001818	0.001418	-0.034214	-0.00178	-0.001167	-0.005489	0.005599	-0.005651
0.256	-0.006862	-0.000384	-0.032158	-0.019841	-0.00076	-0.004514	0.006166	-0.002748
0.2565	-0.009258	-0.001253	-0.022549	-0.030797	-0.001697	-0.003412	0.005194	-8e-06
0.257	-0.011315	-0.00211	-0.013026	-0.039932	-0.001813	-0.001331	0.003784	-0.000446
0.2575	-0.014165	-0.002867	-0.00787	-0.048216	-0.001049	3e-05	0.00305	-0.002811
0.258	-0.015705	-0.003255	-0.005159	-0.049132	-0.000841	-0.001775	0.001641	-0.00305
0.2585	-0.013568	-0.002847	-0.001791	-0.039141	-0.000809	-0.005399	-0.002693	-0.001245
0.259	-0.008606	-0.001839	0.00133	-0.02162	5.8e-05	-0.0063	-0.006913	-0.000595
0.2595	-0.003211	-0.001116	0.002382	-0.000149	0.001501	-0.00372	-0.005287	-0.001027
0.26	0.002335	-0.000761	0.002155	0.024067	0.002888	-0.001771	0.000828	-0.00012
0.2605	0.008739	-0.000705	0.00262	0.048385	0.00275	-0.002395	0.004572	0.002295
0.261	0.015192	-0.001133	0.004945	0.067956	-6.2e-05	-0.002914	0.003729	0.004334
0.2615	0.019775	-0.001603	0.008787	0.078994	-0.003662	-0.000959	0.001826	0.005382
0.262	0.020656	-0.001669	0.01252	0.080995	-0.005309	0.002143	0.001306	0.006206
0.2625	0.017912	-0.001309	0.015461	0.076523	-0.004885	0.004034	0.001291	0.006552
0.263	0.014581	-0.000776	0.018739	0.070041	-0.003517	0.004142	0.000259	0.005804
0.2635	0.013064	-0.000507	0.02108	0.062708	-0.001997	0.002853	-0.001398	0.004423
0.264	0.011472	-0.000283	0.017925	0.047604	-0.000953	0.000726	-0.001509	0.002738
0.2645	0.00574	4.4e-05	0.009506	0.017144	-0.000259	-0.000922	-0.000204	0.00095
0.265	-0.00571	-0.000998	0.003769	-0.025589	0.000111	-0.001116	0.000422	6.8e-05
0.2655	-0.019366	-0.003683	0.006686	-0.067544	4.2e-05	-0.001422	0.000854	0.000622
0.266	-0.028913	-0.005057	0.013179	-0.09601	0.000616	-0.003712	0.002616	0.002044
0.2665	-0.031197	-0.003709	0.010525	-0.106044	0.002439	-0.006312	0.00522	0.003433
0.267	-0.027465	-0.002549	-0.006602	-0.098707	0.00411	-0.006002	0.007048	0.003763
0.2675	-0.019017	-0.004401	-0.026393	-0.075842	0.004043	-0.002388	0.007123	0.002327
0.268	-0.006997	-0.007705	-0.031329	-0.03896	0.002034	0.001145	0.004513	6.3e-05
0.2685	0.005699	-0.008716	-0.018172	0.006384	-0.001088	0.001017	-0.001754	-0.001096
0.269	0.016663	-0.006466	-0.002831	0.047603	-0.003455	-0.001657	-0.008706	-0.001292
0.2695	0.024541	-0.003038	-0.005548	0.072579	-0.002553	-0.002685	-0.011072	-0.001323
0.27	0.027807	-0.000728	-0.030213	0.07937	0.002176	-0.001056	-0.008497	0.000179
0.2705	0.026364	0.000327	-0.056161	0.074131	0.007537	0.000854	-0.005446	0.002805
0.271	0.022029	0.002009	-0.056224	0.062118	0.009104	0.001762	-0.005077	0.002345
0.2715	0.01672	0.004081	-0.025425	0.046418	0.006056	0.001695	-0.006179	-0.001704
0.272	0.012369	0.003937	0.018465	0.032885	0.002754	0.000786	-0.006237	-0.003932
0.2725	0.011043	0.002124	0.061205	0.027247	0.003245	0.000642	-0.005033	-0.002886
0.273	0.012251	0.001297	0.103664	0.028741	0.004829	0.002478	-0.003658	-0.002136
0.2735	0.012693	0.001481	0.142253	0.030177	0.002881	0.004661	-0.002358	-0.00218
0.274	0.010602	0.001862	0.153576	0.023865	-0.001586	0.005444	-0.0006	-0.001132
0.2745	0.006574	0.002592	0.118462	0.009961	-0.00514	0.004621	0.001594	0.001047
0.275	0.001063	0.003757	0.054434	-0.004805	-0.006069	0.002693	0.002727	0.002291
0.2755	-0.00491	0.004873	0.002575	-0.016338	-0.004312	0.001012	0.001249	0.000413
0.276	-0.009049	0.004641	-0.015662	-0.024998	-0.001484	0.000821	-0.001474	-0.004695
0.2765	-0.010451	0.0028	-0.010941	-0.030681	-5.4e-05	0.001866	-0.002818	-0.010111
0.277	-0.010526	0.001271	-0.001051	-0.031635	-0.001242	0.003136	-0.002708	-0.011285
0.2775	-0.01056	0.001395	0.006884	-0.028798	-0.003023	0.004255	-0.002237	-0.007551
0.278	-0.010301	0.001588	0.010131	-0.024858	-0.003328	0.005126	-0.001295	-0.003214
0.2785	-0.008958	-0.000172	0.004607	-0.021069	-0.003277	0.005506	0.001059	-0.001378
0.279	-0.007373	-0.0026	-0.007469	-0.018836	-0.003715	0.005815	0.005363	-0.00139
0.2795	-0.007727	-0.00323	-0.016063	-0.017894	-0.004247	0.005741	0.010277	-0.000788
0.28	-0.009451	-0.00216	-0.015902	-0.016114	-0.004973	0.003883	0.01326	0.001344
0.2805	-0.009236	-0.000765	-0.013221	-0.014072	-0.004928	0.001296	0.01329	0.003131
0.281	-0.006728	0.000531	-0.015974	-0.013716	-0.002572	0.000907	0.011014	0.003613
0.2815	-0.005304	0.002032	-0.022497	-0.014013	0.000465	0.002595	0.006463	0.003713
0.282	-0.006109	0.003978	-0.025581	-0.01317	0.000407	0.003217	-0.00151	0.002585
0.2825	-0.006255	0.005995	-0.023717	-0.012003	-0.002751	0.00151	-0.014875	-0.001626
0.283	-0.004562	0.006745	-0.02164	-0.011093	-0.004885	-0.000839	-0.035201	-0.006514
0.2835	-0.003563	0.005613	-0.02203	-0.010242	-0.003385	-0.001922	-0.060275	-0.00751
0.284	-0.004283	0.004126	-0.021594	-0.010394	-0.000518	-0.001326	-0.084693	-0.005072
0.2845	-0.004241	0.003562	-0.017006	-0.011561	-0.000891	-0.000842	-0.103498	-0.003226
0.285	-0.001729	0.003476	-0.01111	-0.012573	-0.004608	-0.002514	-0.112181	-0.003878
0.2855	0.001164	0.003143	-0.008498	-0.012844	-0.006311	-0.005964	-0.10593	-0.005044
0.286	0.001731	0.002276	-0.008778	-0.012209	-0.002957	-0.008116	-0.081686	-0.003091
0.2865	0.000436	0.00126	-0.008539	-0.010285	0.001972	-0.005539	-0.043283	0.001576
0.287	-0.000613	0.000887	-0.006816	-0.007736	0.003422	0.001243	-0.002894	0.004058
0.2875	-0.00039	0.001333	-0.005003	-0.006913	0.001317	0.008179	0.026857	0.001663
0.288	0.000236	0.001898	-0.003071	-0.007996	-0.000829	0.012688	0.043987	-0.002212
0.2885	-0.000289	0.001628	-0.00066	-0.008325	-0.001402	0.014551	0.065035	-0.002361
0.289	-0.001628	0.000901	0.000103	-0.006816	-0.000544	0.013517	0.11086	0.001227
0.2895	-0.002008	0.001147	-0.001807	-0.004839	0.001799	0.010557	0.166053	0.004219
0.29	-0.001013	0.001971	-0.004377	-0.003725	0.004684	0.008647	0.175495	0.004163
0.2905	-0.000292	0.001412	-0.006857	-0.002755	0.005686	0.0084	0.116698	0.002906
0.291	-0.000972	-0.000273	-0.009838	-0.001167	0.004287	0.007821	0.047694	0.00253
0.2915	-0.001402	-0.00068	-0.011792	0.0002	0.003155	0.005824	0.032562	0.001626
0.292	-3.4e-05	6.4e-05	-0.010783	0.002032	0.003272	0.002077	0.046767	-0.000475
0.2925	0.001556	0.000152	-0.008061	0.005276	0.003313	-0.002449	0.0177	-0.002363
0.293	0.001775	3.7e-05	-0.0063	0.008036	0.00344	-0.005067	-0.058711	-0.004829
0.2935	0.00203	0.000378	-0.005755	0.008711	0.004128	-0.004596	-0.10853	-0.008391
0.294	0.003275	0.001105	-0.005329	0.007903	0.004673	-0.002887	-0.09017	-0.009993
0.2945	0.003555	0.002843	-0.005154	0.00616	0.004973	-0.002138	-0.049241	-0.007711
0.295	0.001623	0.004505	-0.005217	0.003741	0.005205	-0.002663	-0.035188	-0.004677
0.2955	-0.000946	0.003797	-0.004445	0.002284	0.005036	-0.003884	-0.020762	-0.003872
0.296	-0.001856	0.002043	-0.002884	0.001231	0.005574	-0.005538	0.044311	-0.003661
0.2965	-0.001599	0.001804	-0.001788	-0.004766	0.007659	-0.007572	0.137726	-0.002141
0.297	-0.003644	0.001677	-0.001665	-0.016965	0.008311	-0.009888	0.181313	-3.2e-05
0.2975	-0.008866	-4.1e-05	-0.001717	-0.02937	0.004945	-0.011833	0.138416	0.001029
0.298	-0.013422	-0.002308	-0.000476	-0.036903	0.000836	-0.01321	0.049786	-0.000208
0.2985	-0.014208	-0.004249	0.002126	-0.038252	0.000407	-0.015305	-0.023346	-0.002112
0.299	-0.012802	-0.005325	0.003614	-0.03622	0.002652	-0.017838	-0.058524	-0.001031
0.2995	-0.012125	-0.004727	0.001752	-0.034652	0.004477	-0.018631	-0.068789	0.002832
0.3	-0.011624	-0.002957	-0.001692	-0.030387	0.004814	-0.017736	-0.065732	0.005704
0.3005	-0.008513	-0.001419	-0.001938	-0.016571	0.003115	-0.017053	-0.046036	0.006103
0.301	-0.002235	-0.000724	0.002717	0.005619	-0.000381	-0.017164	-0.012818	0.005259
0.3015	0.004513	-0.000814	0.007843	0.027314	-0.003911	-0.016676	0.001288	0.004528
0.302	0.00917	-0.001593	0.008669	0.042443	-0.005878	-0.013808	-0.048674	0.004666
0.3025	0.01181	-0.002708	0.005423	0.050467	-0.005245	-0.008631	-0.157486	0.004865
0.303	0.013365	-0.003689	0.000745	0.052544	-0.001971	-0.003174	-0.23151	0.004396
0.3035	0.014312	-0.004205	-0.002723	0.050278	0.001689	0.000922	-0.164859	0.004215
0.304	0.014787	-0.004007	-0.002946	0.046248	0.002965	0.003643	0.018309	0.004591
0.3045	0.01425	-0.003573	-0.000755	0.042793	0.001663	0.005177	0.154742	0.005032
0.305	0.013141	-0.004022	0.000736	0.038984	0.000223	0.005409	0.123832	0.005432
0.3055	0.012952	-0.005087	-0.000183	0.033246	-0.000158	0.005042	-0.012686	0.005457
0.306	0.01286	-0.004795	-0.002107	0.027033	-0.001358	0.005359	-0.106823	0.004396
0.3065	0.010223	-0.001771	-0.002913	0.021889	-0.003891	0.006296	-0.108236	0.001986
0.307	0.005397	0.00338	-0.002468	0.016741	-0.004941	0.005808	-0.077664	-0.000912
0.3075	0.00194	0.007631	-0.002174	0.010013	-0.002964	0.002612	-0.055989	-0.003439
0.308	0.001378	0.007776	-0.002779	0.003382	-0.000923	-0.001371	-0.014231	-0.00467
0.3085	0.001836	0.004704	-0.003567	-0.001146	-0.001729	-0.002786	0.065181	-0.003773
0.309	0.000933	0.00137	-0.00397	-0.004848	-0.003431	-0.001428	0.134246	-0.001713
0.3095	-0.00199	-0.001242	-0.00432	-0.008151	-0.003646	-0.000476	0.14073	-0.000324
0.31	-0.004423	-0.002884	-0.005333	-0.009895	-0.00304	-0.001049	0.100875	-0.000984
0.3105	-0.003866	-0.003578	-0.007392	-0.010419	-0.00216	-0.001303	0.069278	-0.003022
0.311	-0.001937	-0.003339	-0.009476	-0.010529	-0.001251	-0.000488	0.064183	-0.003423
0.3115	-0.001561	-0.002323	-0.010235	-0.01018	-0.001826	0.000327	0.063348	-0.000937
0.312	-0.003468	-0.002307	-0.009607	-0.010897	-0.003945	0.000793	0.052102	0.002423
0.3125	-0.007323	-0.00324	-0.008346	-0.016714	-0.005249	0.001146	0.038963	0.005153
0.313	-0.012495	-0.002637	-0.006625	-0.028093	-0.004917	0.000202	0.032286	0.007507
0.3135	-0.016475	-0.000651	-0.003617	-0.038832	-0.003776	-0.002008	0.02562	0.008582
0.314	-0.016273	-3.7e-05	0.000728	-0.041565	-0.00164	-0.003211	0.009871	0.007185
0.3145	-0.01215	-0.001414	0.005098	-0.033718	0.000945	-0.002718	-0.011872	0.004522
0.315	-0.006578	-0.001697	0.008411	-0.020592	0.001769	-0.001505	-0.028741	0.002043
0.3155	-0.00105	0.000618	0.010063	-0.009977	-0.000236	-0.00064	-0.034801	0.000342
0.316	0.003833	0.002035	0.01013	-0.002103	-0.00339	-0.00056	-0.031213	0.000323
0.3165	0.007616	0.000387	0.009609	0.006709	-0.004967	-0.000145	-0.02089	0.001266
0.317	0.01027	-0.001524	0.008973	0.013956	-0.004209	0.001635	-0.007397	0.000651
0.3175	0.011522	-0.00182	0.007886	0.015634	-0.003094	0.00368	0.002702	-0.001265
0.318	0.010506	-0.001288	0.006848	0.013499	-0.003519	0.004195	0.002465	-0.001894
0.3185	0.007088	-0.000313	0.007328	0.009796	-0.003853	0.003317	-0.008594	-0.002166
0.319	0.001872	-0.000624	0.00941	0.003892	-0.001508	0.002612	-0.023112	-0.004083
0.3195	-0.004091	-0.004348	0.010639	-0.00449	0.001364	0.003118	-0.032449	-0.005484
0.32	-0.009068	-0.008108	0.00917	-0.013471	0.00088	0.004698	-0.035341	-0.00501
0.3205	-0.012653	-0.006183	0.006878	-0.01921	-0.002094	0.006606	-0.039919	-0.00541
0.321	-0.015469	0.000139	0.006416	-0.019015	-0.003312	0.008305	-0.05479	-0.007596
0.3215	-0.016375	0.003972	0.006988	-0.014408	-0.001337	0.009009	-0.081612	-0.008531
0.322	-0.013334	0.002617	0.005659	-0.00972	0.000759	0.00829	-0.116548	-0.00703
0.3225	-0.006714	-0.000439	0.001357	-0.007885	0.001152	0.007179	-0.150789	-0.005616
0.323	-0.000267	-0.002129	-0.003858	-0.007638	0.001246	0.006968	-0.172535	-0.005398
0.3235	0.003328	-0.002208	-0.006907	-0.006205	0.001111	0.008293	-0.174788	-0.005863
0.324	0.005457	-0.001002	-0.006176	-0.003271	-0.00015	0.010777	-0.158168	-0.007353
0.3245	0.007675	0.000646	-0.003408	0.000587	-0.001456	0.012195	-0.128116	-0.00849
0.325	0.00979	0.001466	-0.003331	0.005874	-0.001349	0.010631	-0.091832	-0.007229
0.3255	0.011125	0.001311	-0.008605	0.012713	-0.000325	0.007777	-0.046557	-0.004411
0.326	0.010987	0.000825	-0.01688	0.02073	0.000212	0.006684	0.032161	-0.001909
0.3265	0.009646	-0.000271	-0.026153	0.029572	0.0002	0.006946	0.156962	-0.000266
0.327	0.007673	-0.001643	-0.03837	0.036328	0.001168	0.005718	0.265928	0.001104
0.3275	0.004924	-0.00124	-0.053053	0.035509	0.004008	0.003441	0.257538	0.00278
0.328	0.001615	0.000906	-0.063261	0.026846	0.006835	0.003234	0.132767	0.004108
0.3285	-0.001349	0.002553	-0.063257	0.017622	0.00717	0.004746	0.026495	0.004351
0.329	-0.003206	0.002791	-0.055134	0.012449	0.005449	0.005319	0.040765	0.004156
0.3295	-0.003787	0.001897	-0.043561	0.008875	0.004229	0.004482	0.119313	0.00384
0.33	-0.003409	0.000319	-0.028229	0.004739	0.004744	0.003332	0.145556	0.00267
0.3305	-0.002563	-0.001305	-0.004044	0.001367	0.005245	0.00295	0.09844	0.000865
0.331	-0.001512	-0.001304	0.033641	-0.000633	0.003794	0.003316	0.045403	-0.000488
0.3315	-0.000588	0.002505	0.081507	-0.001984	0.001234	0.002454	0.029465	5e-06
0.332	-0.000653	0.00864	0.125046	-0.003395	-0.000731	-0.00055	0.030941	0.003166
0.3325	-0.001536	0.011853	0.147909	-0.006509	-0.001728	-0.002941	0.020921	0.005748
0.333	-0.001525	0.009479	0.143744	-0.010055	-0.00181	-0.003287	-0.001537	0.004034
0.3335	0.000357	0.004365	0.116937	-0.009704	-0.001067	-0.003558	-0.027801	0.000555
0.334	0.003447	0.000826	0.076149	-0.005473	-0.000253	-0.003826	-0.058255	-0.001148
0.3345	0.006014	0.000242	0.030762	-0.000596	0.000107	-0.003085	-0.090489	-0.001694
0.335	0.006424	0.001354	-0.007675	0.003401	6.5e-05	-0.002583	-0.110793	-0.001387
0.3355	0.004733	0.002935	-0.02835	0.005495	-0.000275	-0.003209	-0.109478	0.000371
0.336	0.002607	0.004451	-0.032724	0.004627	0.000139	-0.00342	-0.091912	0.002107
0.3365	0.001808	0.004919	-0.035195	0.002486	0.001051	-0.001408	-0.062883	0.003048
0.337	0.002781	0.004119	-0.04332	0.00222	0.000282	0.001806	-0.013387	0.00404
0.3375	0.004103	0.003823	-0.046327	0.002698	-0.001164	0.003215	0.058595	0.004831
0.338	0.003442	0.004092	-0.031948	0.000709	-0.001332	0.00164	0.127269	0.005823
0.3385	0.000962	0.002604	-0.007085	-0.003569	-0.001077	-0.000973	0.160747	0.007479
0.339	-0.000252	-0.000608	0.008048	-0.008484	-0.000782	-0.001865	0.152779	0.008107
0.3395	0.000589	-0.003122	0.004213	-0.011679	-0.000507	-0.001382	0.118194	0.007907
0.34	0.001555	-0.003678	-0.007294	-0.010862	-0.000856	-0.002242	0.071715	0.008774
0.3405	0.001683	-0.003035	-0.012389	-0.007996	-0.001256	-0.004373	0.025161	0.009372
0.341	0.001376	-0.00226	-0.011939	-0.005933	-0.000949	-0.005512	-0.007939	0.00733
0.3415	0.001814	-0.002015	-0.013296	-0.002559	-0.000419	-0.005081	-0.022373	0.004477
0.342	0.00323	-0.002578	-0.015977	0.003785	-0.000191	-0.00342	-0.028504	0.004285
0.3425	0.004208	-0.003295	-0.016302	0.009547	0.000685	-0.001062	-0.038852	0.006141
0.343	0.003704	-0.00455	-0.014884	0.01224	0.002033	-0.000385	-0.055602	0.007521
0.3435	0.001677	-0.006549	-0.013334	0.012046	0.001761	-0.00249	-0.073051	0.007629
0.344	-0.000596	-0.00633	-0.011296	0.008193	0.00103	-0.004151	-0.085704	0.006439
0.3445	-0.001376	-0.003132	-0.008452	0.001866	0.002703	-0.003224	-0.09135	0.004729
0.345	-0.001432	-0.000976	-0.006109	-0.00307	0.004906	-0.001541	-0.083392	0.003952
0.3455	-0.002318	-0.001411	-0.005875	-0.004687	0.004446	-0.000595	-0.050377	0.003772
0.346	-0.003254	-0.001731	-0.007348	-0.004111	0.002503	-0.000258	0.003662	0.001928
0.3465	-0.00357	-0.001068	-0.008004	-0.003728	0.002001	-0.000394	0.049722	-0.001448
0.347	-0.00379	-0.000828	-0.006333	-0.005399	0.003544	-0.000659	0.062747	-0.003133
0.3475	-0.003837	-0.000735	-0.004076	-0.008842	0.004979	-0.000447	0.052345	-0.002078
0.348	-0.003698	0.000125	-0.003705	-0.010978	0.0037	9e-05	0.045125	-0.000416
0.3485	-0.003547	0.001412	-0.005277	-0.008943	-7.6e-05	0.000856	0.042287	-0.000338
0.349	-0.003218	0.002066	-0.006593	-0.00437	-0.003715	0.002717	0.018532	-0.002069
0.3495	-0.003256	0.000723	-0.00559	-0.001197	-0.004941	0.005009	-0.030477	-0.003409
0.35	-0.00425	-0.002588	-0.003205	-0.000519	-0.003304	0.005475	-0.057987	-0.002769
0.3505	-0.005253	-0.00618	-0.002766	-9.8e-05	-0.00073	0.003764	-0.005399	-0.001692
0.351	-0.004538	-0.008172	-0.00462	0.001584	0.000899	0.001524	0.120728	-0.002744
0.3515	-0.002028	-0.007413	-0.004832	0.00255	0.001492	0.000335	0.225978	-0.005781
0.352	0.000177	-0.005188	-0.001476	0.001502	0.000662	0.00035	0.211809	-0.007461
0.3525	0.000385	-0.003463	0.00308	1.7e-05	-0.001832	0.00065	0.082493	-0.006169
0.353	-0.001094	-0.002095	0.006595	-0.000886	-0.00381	0.000399	-0.062857	-0.004448
0.3535	-0.002406	-0.000643	0.008966	-0.000569	-0.00261	-0.00131	-0.144014	-0.004135
0.354	-0.002083	0.000214	0.010737	0.000825	0.000119	-0.004022	-0.164171	-0.004049
0.3545	-0.00091	-0.000238	0.012386	0.001409	-3.6e-05	-0.005416	-0.154889	-0.00363
0.355	-0.000182	-0.00101	0.014844	0.000976	-0.002386	-0.004453	-0.113902	-0.004098
0.3555	0.000204	-0.000379	0.017357	0.000913	-0.002356	-0.002374	-0.035881	-0.005242
0.356	0.000661	0.001182	0.014618	0.00063	0.000245	-0.000569	0.036969	-0.004989
0.3565	0.000987	0.002674	0.001448	-0.001802	0.002162	-7.8e-05	0.049387	-0.003492
0.357	0.000976	0.003851	-0.016941	-0.005597	0.001914	-0.001514	0.004598	-0.00309
0.3575	0.001229	0.003779	-0.026315	-0.007531	0.000281	-0.003011	-0.039359	-0.004144
0.358	0.001984	0.003288	-0.022555	-0.006955	-0.001456	-0.001971	-0.038266	-0.005829
0.3585	0.002085	0.004164	-0.01948	-0.006289	-0.002972	0.000638	0.00238	-0.008406
0.359	0.001129	0.005216	-0.028226	-0.006595	-0.003959	0.002078	0.050827	-0.011489
0.3595	0.000267	0.005538	-0.040947	-0.006402	-0.003639	0.001908	0.080609	-0.01305
0.36	0.000434	0.006617	-0.04437	-0.004851	-0.002386	0.001209	0.082807	-0.011735
0.3605	0.00136	0.008954	-0.039427	-0.002837	-0.001752	-1.4e-05	0.066983	-0.008653
0.361	0.001344	0.011252	-0.035501	-0.002576	-0.002218	-0.001955	0.049339	-0.005939
0.3615	-0.000735	0.011134	-0.031795	-0.005695	-0.001919	-0.003627	0.031026	-0.0045
0.362	-0.002745	0.007425	-0.018239	-0.008557	6.8e-05	-0.004528	-0.004593	-0.0041
0.3625	-0.001651	0.003129	0.007828	-0.006561	0.001596	-0.004781	-0.060845	-0.004367
0.363	0.001779	0.001706	0.03704	-0.001563	0.000521	-0.004302	-0.106858	-0.003998
0.3635	0.0041	0.002503	0.0585	0.002668	-0.002651	-0.003577	-0.108239	-0.001567
0.364	0.004015	0.002932	0.064944	0.004904	-0.004625	-0.00334	-0.068746	0.001409
0.3645	0.002791	0.001785	0.051951	0.004955	-0.003395	-0.004193	-0.024722	0.002164
0.365	0.001531	-0.000118	0.024891	0.003882	-0.001702	-0.006261	-0.004174	0.001505
0.3655	0.000337	-0.001875	0.00207	0.003302	-0.002272	-0.008574	-0.004817	0.002707
0.366	-0.000627	-0.00308	-9e-05	0.00286	-0.003612	-0.009761	-0.010743	0.005258
0.3665	-0.000914	-0.002646	0.017003	0.001406	-0.003309	-0.008739	-0.013674	0.005816
0.367	-0.000508	-0.001125	0.036466	-4.9e-05	-0.001276	-0.005775	-0.013122	0.005292
0.3675	0.000882	-0.000925	0.040347	0.000102	0.001137	-0.00245	-0.010237	0.005697
0.368	0.002959	-0.002631	0.022425	0.001953	0.002234	0.000541	-0.007199	0.0057
0.3685	0.003314	-0.004566	-0.006096	0.004353	0.001514	0.002997	-0.005615	0.005544
0.369	0.000983	-0.004936	-0.022817	0.004645	0.001149	0.004053	-0.004904	0.005662
0.3695	-0.001375	-0.003781	-0.014824	0.001673	0.002499	0.00357	-0.004449	0.003908
0.37	-0.001377	-0.003259	0.005533	-0.001181	0.004241	0.002513	-0.004302	0.00139
0.3705	0.000567	-0.004694	0.015325	-0.000643	0.00581	0.001564	-0.004837	0.001603
0.371	0.00222	-0.005774	0.008571	0.001941	0.007217	0.000846	-0.008133	0.003614
0.3715	0.001707	-0.003548	-0.00146	0.003872	0.00658	0.000449	-0.016735	0.004624
0.372	6.9e-05	0.000611	-0.003043	0.004406	0.002697	-0.000175	-0.02926	0.005172
0.3725	-0.000337	0.00292	0.002115	0.00306	-0.001665	-0.001198	-0.038846	0.005797
0.373	0.000155	0.002384	0.007132	9.6e-05	-0.003119	-0.001425	-0.039688	0.005422
0.3735	-8e-05	0.001163	0.008967	-0.001523	-0.001852	-0.000854	-0.034653	0.004826
0.374	-0.000945	0.001261	0.008264	-0.000214	8.3e-05	-1.6e-05	-0.03098	0.004657
0.3745	-0.001587	0.00224	0.006602	0.001336	0.001379	0.001944	-0.031852	0.003881
0.375	-0.001743	0.00243	0.003923	0.000471	0.001687	0.0043	-0.036644	0.002357
0.3755	-0.001689	0.001189	-0.000186	-0.002258	0.001296	0.00481	-0.043488	-0.000248
0.376	-0.001849	-0.000858	-0.003776	-0.004174	0.00084	0.003732	-0.050074	-0.004437
0.3765	-0.002241	-0.002267	-0.004764	-0.002797	0.001149	0.003291	-0.053704	-0.007489
0.377	-0.002228	-0.002539	-0.003274	0.00133	0.002752	0.003948	-0.047594	-0.006413
0.3775	-0.001538	-0.002798	-0.000933	0.00404	0.004514	0.004382	-0.021818	-0.003124
0.378	-0.000604	-0.003373	0.000795	0.002763	0.004115	0.004215	0.023639	-0.001441
0.3785	0.000535	-0.003608	0.002527	0.001018	0.001409	0.003802	0.068933	-0.001804
0.379	0.001628	-0.003208	0.00589	0.002155	-0.001064	0.002835	0.085491	-0.001908
0.3795	0.001551	-0.002857	0.010436	0.003527	-0.001407	0.001294	0.061913	-0.001227
0.38	0.000406	-0.00374	0.012834	0.003013	0.000327	0.000505	0.017149	-0.001143
0.3805	0.000393	-0.005694	0.008885	0.003241	0.002806	0.001448	-0.017117	-0.0003
0.381	0.002708	-0.007402	-0.002936	0.005273	0.004232	0.002154	-0.027269	0.002851
0.3815	0.005246	-0.007673	-0.022198	0.005889	0.00382	0.000425	-0.024102	0.004835
0.382	0.00519	-0.006251	-0.050293	0.00358	0.001953	-0.00127	-0.017298	0.003354
0.3825	0.002824	-0.004408	-0.083415	0.000888	-0.000544	0.000196	0.002738	0.00169
0.383	0.00068	-0.003206	-0.101236	-0.000502	-0.002152	0.002504	0.045758	0.001512
0.3835	-0.00063	-0.002112	-0.082029	-0.001829	-0.001688	0.002227	0.093277	0.00151
0.384	-0.002705	-0.000596	-0.035958	-0.00359	-0.000341	0.000399	0.10872	0.00212
0.3845	-0.005858	0.001245	0.000536	-0.004312	0.000161	-0.000559	0.079063	0.003585
0.385	-0.00786	0.003361	0.010869	-0.004504	0.000383	-0.000752	0.030405	0.004228
0.3855	-0.006695	0.004478	0.014711	-0.005277	0.000831	-0.001805	-0.003456	0.004259
0.386	-0.003288	0.003041	0.036861	-0.004657	0.000476	-0.004247	-0.014288	0.005338
0.3865	-0.000283	0.001022	0.078605	-0.002316	-0.00069	-0.006278	-0.016128	0.006192
0.387	9.7e-05	0.001348	0.116333	-0.000304	-0.001963	-0.006347	-0.020023	0.004901
0.3875	-0.002041	0.00334	0.119043	0.001054	-0.003531	-0.00532	-0.022109	0.002808
0.388	-0.00351	0.005365	0.075772	0.001227	-0.005386	-0.003958	-0.015735	0.001736
0.3885	-0.002482	0.006799	0.01091	0	-0.006187	-0.002109	-0.003589	0.001717
0.389	-0.001167	0.006406	-0.036322	-0.000773	-0.004624	-0.00051	0.008571	0.00256
0.3895	-0.001642	0.004281	-0.048985	-0.000168	-0.001734	0.000285	0.020022	0.003668
0.39	-0.002653	0.002938	-0.040957	0.001034	0.000431	0.00187	0.031547	0.003315
0.3905	-0.002169	0.003281	-0.033212	0.002182	0.001368	0.005545	0.041417	0.000973
0.391	-0.000637	0.00375	-0.033581	0.002998	0.001203	0.009312	0.047004	-0.001168
0.3915	0.000446	0.003695	-0.036674	0.002802	-6.8e-05	0.010273	0.048344	-0.001495
0.392	7e-05	0.003119	-0.033849	0.001621	-0.00207	0.00782	0.048312	-0.001122
0.3925	-0.002283	0.001459	-0.020759	0.000383	-0.003346	0.004346	0.047219	-0.001193
0.393	-0.004645	-0.00046	0.001216	-0.000748	-0.001937	0.00228	0.040574	-0.001236
0.3935	-0.004449	-0.000248	0.025198	-0.001515	0.001043	0.000621	0.024245	-0.000702
0.394	-0.002561	0.002179	0.040363	-0.001744	0.00256	-0.001611	0.000582	-0.000848
0.3945	-0.000676	0.003176	0.038132	-0.001904	0.002742	-0.002942	-0.021167	-0.003101
0.395	0.001702	0.000968	0.020135	-0.00164	0.00406	-0.002283	-0.030809	-0.005773
0.3955	0.004372	-0.001885	-0.000403	-0.00042	0.006844	-0.000131	-0.023669	-0.006079
0.396	0.005928	-0.003027	-0.010272	0.000612	0.008851	0.001955	-0.004023	-0.004458
0.3965	0.006433	-0.002308	-0.009205	9.7e-05	0.008479	0.003044	0.014877	-0.003844
0.397	0.005898	-0.001881	-0.005701	-0.000294	0.005644	0.003056	0.017684	-0.005161
0.3975	0.004321	-0.00384	-0.004192	0.00108	0.001784	0.001937	-0.000645	-0.006612
0.398	0.003372	-0.00603	-0.002295	0.002638	-0.000745	0.000871	-0.028933	-0.006592
0.3985	0.003035	-0.005433	0.002336	0.003272	-0.002084	0.000746	-0.047391	-0.004985
0.399	0.001438	-0.002914	0.007166	0.003544	-0.0038	-1.1e-05	-0.04283	-0.003495
0.3995	-0.000811	-0.000945	0.008831	0.003703	-0.004936	-0.002356	-0.018914	-0.003646
0.4	-0.001905	-0.000633	0.008292	0.003638	-0.003818	-0.004612	0.008609	-0.004131
0.4005	-0.002038	-0.001244	0.008593	0.003966	-0.001198	-0.005834	0.026912	-0.003274
0.401	-0.001616	-0.000854	0.010308	0.004977	0.000818	-0.006782	0.03552	-0.002843
0.4015	-0.000678	0.001158	0.010679	0.00538	0.001202	-0.007046	0.042081	-0.004851
0.402	-0.000339	0.003008	0.007588	0.004955	0.00018	-0.005743	0.052767	-0.005967
0.4025	-0.000644	0.003578	0.003036	0.004463	-0.001542	-0.003741	0.066609	-0.0033
0.403	-0.000427	0.003617	3.6e-05	0.003005	-0.00316	-0.002196	0.072492	-0.000501
0.4035	-8.1e-05	0.003217	-0.001123	0.000608	-0.004392	-0.000709	0.051001	-0.00033
0.404	-0.000462	0.002435	-0.002254	-0.000141	-0.004854	0.001209	-0.009233	-0.001095
0.4045	-0.00108	0.002523	-0.0051	0.001721	-0.004102	0.002385	-0.087513	-0.001267
0.405	-0.001029	0.003136	-0.009268	0.003481	-0.002764	0.002181	-0.134789	-0.000945
0.4055	-0.000423	0.002092	-0.012726	0.002424	-0.001758	0.002235	-0.119056	-0.001372
0.406	-0.000637	-0.00056	-0.014368	-0.000623	-0.001599	0.002912	-0.062303	-0.00219
0.4065	-0.001839	-0.001943	-0.014118	-0.003209	-0.001797	0.002214	-0.019041	-0.001177
0.407	-0.001686	-0.000725	-0.011882	-0.004068	-0.001141	-4.1e-05	-0.021049	0.001094
0.4075	0.000356	0.000373	-0.008584	-0.002833	-0.000169	-0.001706	-0.051464	0.001411
0.408	0.001492	-0.001912	-0.006318	-0.000803	7.1e-05	-0.001432	-0.070551	-0.001327
0.4085	0.001029	-0.006104	-0.00586	-0.000505	0.000406	0.000284	-0.058647	-0.004081
0.409	0.000895	-0.007778	-0.006219	-0.002248	0.001105	0.002067	-0.030268	-0.003591
0.4095	0.001196	-0.00622	-0.005826	-0.003486	0.000984	0.00251	-0.01168	-0.000527
0.41	0.001527	-0.003322	-0.003234	-0.002556	0.000411	0.001285	-0.012777	0.001748
0.4105	0.003053	0.000406	-2.2e-05	-0.001472	0.00077	0.000246	-0.022694	0.000819
0.411	0.005448	0.003251	-7e-06	-0.001923	0.000742	0.000612	-0.029197	-0.001264
0.4115	0.006862	0.003045	-0.003274	-0.002055	-0.001843	0.00033	-0.033323	-0.000965
0.412	0.007539	0.001505	-0.005947	-0.000671	-0.005378	-0.00166	-0.041028	0.000519
0.4125	0.008353	0.001081	-0.006028	0.001131	-0.00679	-0.003053	-0.051552	0.000876
0.413	0.007928	0.001114	-0.005104	0.003017	-0.00634	-0.003044	-0.060153	0.00177
0.4135	0.005371	0.000667	-0.003843	0.004687	-0.006209	-0.003024	-0.065209	0.004297
0.414	0.002246	-0.000457	-0.001254	0.004417	-0.0067	-0.003308	-0.068494	0.005639
0.4145	-0.000362	-0.003046	0.002205	0.002491	-0.006572	-0.003994	-0.06584	0.003856
0.415	-0.003032	-0.006057	0.005297	0.000634	-0.005701	-0.004735	-0.038742	0.000615
0.4155	-0.005944	-0.006744	0.006587	-0.001719	-0.005331	-0.003803	0.027972	-0.001849
0.416	-0.008307	-0.004858	0.004651	-0.004658	-0.005689	-0.001602	0.111846	-0.002819
0.4165	-0.009194	-0.002758	0.000159	-0.006635	-0.00541	-0.000808	0.158783	-0.002859
0.417	-0.008236	-0.001876	-0.00391	-0.00737	-0.004046	-0.001503	0.141549	-0.002467
0.4175	-0.005845	-0.001168	-0.004911	-0.006896	-0.002824	-0.001566	0.095015	-0.001227
0.418	-0.003068	0.000463	-0.002886	-0.004437	-0.002934	-0.000759	0.072684	0.001467
0.4185	-0.001122	0.002525	9.6e-05	-0.002478	-0.003971	0.000252	0.081775	0.005203
0.419	-0.000465	0.004696	0.001294	-0.00664	-0.004074	0.001731	0.084222	0.007666
0.4195	-0.001191	0.00649	-0.000661	-0.016985	-0.003347	0.003153	0.053242	0.006759
0.42	-0.002792	0.006642	-0.003212	-0.027271	-0.003645	0.003819	0.008058	0.002968
0.4205	-0.003973	0.004834	-0.002892	-0.033266	-0.004546	0.003812	-0.007239	-0.000747
0.421	-0.004923	0.002657	-0.000366	-0.035994	-0.004126	0.002698	0.029409	-0.001045
0.4215	-0.006889	0.002441	0.001768	-0.038823	-0.001778	0.001129	0.091433	0.002076
0.422	-0.009745	0.003593	0.003045	-0.041867	0.00048	0.000495	0.123568	0.005642
0.4225	-0.011585	0.003499	0.003896	-0.041032	0.0004	0.001241	0.09463	0.007186
0.423	-0.009982	0.00225	0.004703	-0.032957	-0.001101	0.003654	0.0247	0.006888
0.4235	-0.00447	0.001424	0.006025	-0.017725	-0.001831	0.005919	-0.048079	0.006338
0.424	0.002636	0.001328	0.006668	0.001057	-0.000377	0.005678	-0.107999	0.005171
0.4245	0.00876	0.000998	0.004458	0.01871	0.003323	0.003699	-0.152274	0.003477
0.425	0.013663	-0.000528	0.00021	0.032774	0.006802	0.001402	-0.166571	0.003711
0.4255	0.018142	-0.002457	-0.002429	0.043002	0.006961	-0.000749	-0.14017	0.006312
0.426	0.020842	-0.003881	-0.001796	0.049559	0.004339	-0.00259	-0.090528	0.00823
0.4265	0.020033	-0.005797	3.2e-05	0.052399	0.002791	-0.004159	-0.045125	0.006785
0.427	0.017525	-0.008433	0.000397	0.052608	0.003981	-0.005153	-0.009517	0.003791
0.4275	0.016189	-0.008224	-0.000443	0.050965	0.006143	-0.004821	0.026521	0.002523
0.428	0.015477	-0.002224	0.000501	0.047445	0.007576	-0.002646	0.063821	0.002823
0.4285	0.013476	0.005003	0.003471	0.044003	0.007997	0.001123	0.092795	0.003432
0.429	0.010463	0.006448	0.004563	0.040487	0.007898	0.00589	0.106203	0.003647
0.4295	0.006677	0.002269	0.002366	0.032577	0.007726	0.009802	0.098182	0.003171
0.43	0.000962	-0.002417	5.4e-05	0.019047	0.007456	0.010041	0.063125	0.002401
0.4305	-0.005552	-0.004773	0.000456	0.003969	0.006297	0.006917	0.007925	0.001074
0.431	-0.009682	-0.004714	0.003455	-0.008752	0.004	0.003729	-0.045359	-0.00126
0.4315	-0.011209	-0.002035	0.007355	-0.01856	0.002555	0.001424	-0.075656	-0.00369
0.432	-0.012539	0.003191	0.010112	-0.026302	0.003605	-0.001504	-0.075973	-0.004667
0.4325	-0.013297	0.00875	0.010356	-0.032006	0.005629	-0.004499	-0.048944	-0.004963
0.433	-0.011449	0.01044	0.008697	-0.034654	0.005641	-0.005912	0.003207	-0.00653
0.4335	-0.009139	0.006547	0.006726	-0.034273	0.002727	-0.00607	0.072587	-0.008614
0.434	-0.010233	0.001633	0.005006	-0.033338	-0.000568	-0.005768	0.133643	-0.010204
0.4345	-0.013741	0.000576	0.003647	-0.033699	-0.000984	-0.004857	0.155759	-0.011794
0.435	-0.015999	0.002679	0.003672	-0.034631	0.001409	-0.003081	0.132608	-0.012255
0.4355	-0.016336	0.005171	0.004884	-0.034119	0.0033	-0.001052	0.090852	-0.010437
0.436	-0.015285	0.006239	0.004871	-0.030944	0.003066	0.000329	0.064346	-0.009033
0.4365	-0.012239	0.004422	0.002787	-0.025267	0.002478	0.000741	0.061225	-0.010285
0.437	-0.008075	-0.00022	4.1e-05	-0.016788	0.002762	0.000233	0.063252	-0.011947
0.4375	-0.004625	-0.005057	-0.002042	-0.006074	0.003435	9.8e-05	0.054586	-0.012325
0.438	-0.001581	-0.007219	-0.003123	0.004734	0.004186	0.001386	0.036541	-0.01181
0.4385	0.002253	-0.005934	-0.003911	0.015226	0.004579	0.002561	0.015485	-0.00956
0.439	0.006643	-0.001995	-0.004576	0.02605	0.00431	0.002423	-0.007306	-0.005238
0.4395	0.011147	0.002636	-0.004325	0.037218	0.004043	0.002235	-0.031355	-0.000919
0.44	0.01576	0.004701	-0.003226	0.049666	0.003695	0.003337	-0.050704	0.001286
0.4405	0.018953	0.002796	-0.002063	0.062461	0.00258	0.005109	-0.058145	0.001618
0.441	0.018049	9.2e-05	-0.000907	0.068608	0.002161	0.005821	-0.05677	0.001964
0.4415	0.012625	-0.000622	-1.7e-05	0.060692	0.004273	0.004951	-0.058476	0.003078
0.442	0.005977	-0.001084	-0.000299	0.040696	0.007087	0.00362	-0.068455	0.004314
0.4425	0.001468	-0.002665	-0.001529	0.018634	0.007277	0.002926	-0.08154	0.005335
0.443	-0.001247	-0.003953	-0.003359	0.002053	0.005063	0.002458	-0.095583	0.005865
0.4435	-0.003726	-0.004239	-0.007524	-0.007931	0.002997	0.001142	-0.115652	0.005811
0.444	-0.005257	-0.004288	-0.016531	-0.012352	0.001456	-0.000743	-0.138156	0.006027
0.4445	-0.004366	-0.004174	-0.030594	-0.012253	9.6e-05	-0.001632	-0.14255	0.006984
0.445	-0.001304	-0.002909	-0.046126	-0.01077	0.000484	-0.000169	-0.110821	0.008079
0.4455	0.001802	-0.001294	-0.058159	-0.011046	0.002411	0.001891	-0.052294	0.009134
0.446	0.002743	-0.001532	-0.064106	-0.011921	0.002314	0.000584	-0.000826	0.009567
0.4465	0.001191	-0.003015	-0.065694	-0.011887	-0.000691	-0.003392	0.01756	0.007333
0.447	-0.000977	-0.003241	-0.066559	-0.011961	-0.00252	-0.005669	0.009608	0.003333
0.4475	-0.001474	-0.001952	-0.065797	-0.012006	-0.000924	-0.005733	0.000996	0.001616
0.448	-0.00034	-0.001337	-0.058822	-0.011602	0.001161	-0.005493	0.005466	0.002763
0.4485	0.00073	-0.002546	-0.045282	-0.011582	0.001332	-0.004418	0.01844	0.004251
0.449	0.000894	-0.003652	-0.027307	-0.01139	0.000823	-0.001972	0.033868	0.004876
0.4495	0.000156	-0.002424	0.000823	-0.010111	0.000529	-0.000455	0.049353	0.004123
0.45	-0.000589	0.000603	0.050095	-0.009123	-0.000558	-0.001507	0.057034	0.00142
0.4505	-0.000166	0.00326	0.116039	-0.008552	-0.0022	-0.004001	0.047073	-0.002111
0.451	0.001007	0.004641	0.168537	-0.006433	-0.003121	-0.006512	0.019953	-0.004181
0.4515	0.001636	0.00514	0.176283	-0.004215	-0.003756	-0.007341	-0.014223	-0.004356
0.452	0.001012	0.00436	0.139402	-0.004363	-0.005248	-0.005446	-0.047746	-0.003479
0.4525	-0.000133	0.002562	0.085648	-0.005675	-0.007099	-0.003054	-0.081049	-0.002184
0.453	-0.000268	0.002706	0.040445	-0.007064	-0.007785	-0.001636	-0.117491	-0.002003
0.4535	5.8e-05	0.006149	0.013175	-0.009147	-0.007295	0.000668	-0.154266	-0.00275
0.454	-0.000607	0.009225	0.001485	-0.01058	-0.006875	0.003633	-0.173864	-0.002289
0.4545	-0.001895	0.008527	-0.003256	-0.009305	-0.006042	0.00457	-0.150025	-0.001777
0.455	-0.003669	0.005244	-0.007838	-0.00867	-0.003741	0.004184	-0.076091	-0.00336
0.4555	-0.006699	0.002069	-0.012358	-0.013909	-0.00198	0.004984	0.012747	-0.004847
0.456	-0.009763	0.000753	-0.014746	-0.02269	-0.003189	0.005942	0.061344	-0.00391
0.4565	-0.010193	0.00154	-0.014102	-0.028372	-0.005883	0.00519	0.050468	-0.002368
0.457	-0.008229	0.001978	-0.010367	-0.027392	-0.006834	0.0037	0.020484	-0.001534
0.4575	-0.006571	-0.000219	-0.005114	-0.021299	-0.005345	0.003158	0.026085	-0.000849
0.458	-0.005997	-0.003707	-0.001454	-0.015193	-0.00342	0.003824	0.075409	-0.001463
0.4585	-0.005669	-0.006315	-0.001619	-0.010629	-0.002681	0.003995	0.126298	-0.003593
0.459	-0.004829	-0.008277	-0.004368	-0.005417	-0.002984	0.001987	0.137538	-0.004739
0.4595	-0.002847	-0.009869	-0.0062	-0.000255	-0.003207	-0.000337	0.109421	-0.003844
0.46	-0.000231	-0.008808	-0.006231	0.003476	-0.002725	-0.000459	0.073288	-0.00285
0.4605	0.001596	-0.003192	-0.007385	0.007216	-0.002561	-0.000318	0.054255	-0.003896
0.461	0.001908	0.004268	-0.011222	0.010344	-0.003209	-0.002175	0.051987	-0.00688
0.4615	0.001676	0.008276	-0.015872	0.00975	-0.003393	-0.003935	0.053347	-0.009423
0.462	0.002254	0.006734	-0.018832	0.007366	-0.002601	-0.003754	0.05127	-0.008245
0.4625	0.003329	0.002572	-0.017901	0.007657	-0.002073	-0.002473	0.046911	-0.003132
0.463	0.004256	-0.000461	-0.013958	0.010388	-0.00318	-0.000932	0.041769	0.001939
0.4635	0.005325	-0.002258	-0.011549	0.014022	-0.004966	0.000252	0.033951	0.005376
0.464	0.005959	-0.003688	-0.011974	0.017495	-0.004718	0.000793	0.020932	0.008719
0.4645	0.004649	-0.003996	-0.012001	0.017884	-0.002232	0.001041	0.002116	0.010703
0.465	0.001659	-0.004653	-0.01041	0.013555	0.00049	0.000814	-0.019394	0.009432
0.4655	-0.000243	-0.008327	-0.009219	0.006897	0.002311	-0.000264	-0.035444	0.006482
0.466	0.001086	-0.012732	-0.00914	0.002474	0.002637	-0.001408	-0.039866	0.004352
0.4665	0.00392	-0.012368	-0.008931	0.003357	0.00168	-0.001802	-0.036833	0.004184
0.467	0.004453	-0.00632	-0.007739	0.007061	0.00053	-0.002034	-0.034551	0.006002
0.4675	0.002074	0.000207	-0.005583	0.007462	0.000197	-0.002742	-0.034225	0.008101
0.468	-0.000158	0.002345	-0.003238	0.003528	0.001287	-0.003535	-0.032881	0.008255
0.4685	-0.000134	0.000342	-0.001955	0.000523	0.002974	-0.003398	-0.031254	0.006478
0.469	0.001459	-0.001943	-0.002535	0.0015	0.004224	-0.002144	-0.032182	0.004817
0.4695	0.003075	-0.001597	-0.003692	0.004106	0.005026	-0.001071	-0.034832	0.00578
0.47	0.003909	0.000564	-0.003653	0.004933	0.005116	-0.000646	-0.031348	0.009798
0.4705	0.00393	0.001749	-0.003633	0.003339	0.004164	-0.000574	-0.007489	0.014015
0.471	0.003047	0.000947	-0.00503	0.001513	0.002581	-0.001766	0.045829	0.015986
0.4715	0.000761	0.000269	-0.006344	0.000979	0.001511	-0.003717	0.112165	0.015977
0.472	-0.002262	0.001561	-0.005763	0.000732	0.001527	-0.003962	0.150349	0.01513
0.4725	-0.003629	0.003939	-0.003963	0.000127	0.001739	-0.00289	0.133568	0.013695
0.473	-0.002732	0.006184	-0.003492	-0.000163	0.001686	-0.002666	0.080831	0.011505
0.4735	-0.001739	0.007436	-0.00488	-0.000434	0.001431	-0.00252	0.034259	0.00912
0.474	-0.001536	0.006761	-0.006441	-0.000672	0.000425	-0.001456	0.014682	0.006869
0.4745	-0.001323	0.004393	-0.007851	0.000746	-0.001219	-0.000943	0.012405	0.004445
0.475	-0.000643	0.001399	-0.009068	0.003402	-0.002302	-0.000638	0.010613	0.000914
0.4755	0.001424	-0.001291	-0.009034	0.004507	-0.002219	0.001576	0.002325	-0.004486
0.476	0.004877	-0.002922	-0.007339	0.002832	-0.001997	0.00441	-0.012662	-0.008886
0.4765	0.007106	-0.003226	-0.004215	-0.000358	-0.002498	0.004903	-0.033953	-0.00879
0.477	0.006387	-0.003296	-0.000665	-0.001712	-0.002768	0.002511	-0.057444	-0.00573
0.4775	0.004139	-0.003926	0.00202	0.000451	-0.002092	-0.00112	-0.071556	-0.003122
0.478	0.002027	-0.003331	0.00334	0.002737	-0.001405	-0.003457	-0.06597	-0.002693
0.4785	0.000492	8.2e-05	0.003062	0.002624	-0.001453	-0.003491	-0.045599	-0.004982
0.479	0.000214	0.00471	0.002002	0.001665	-0.001701	-0.002666	-0.027661	-0.008785
0.4795	0.000784	0.007154	0.001558	0.001417	-0.001145	-0.002775	-0.024187	-0.011271
0.48	0.000361	0.005591	0.000849	0.001333	0.000487	-0.003414	-0.034568	-0.011719
0.4805	-0.000664	0.001323	-0.002344	0.000202	0.002158	-0.002484	-0.051828	-0.012931
0.481	-0.000882	-0.002748	-0.006513	-0.000751	0.002586	4.8e-05	-0.068133	-0.015686
0.4815	-0.001176	-0.003444	-0.006081	-0.000361	0.002213	0.002335	-0.075648	-0.018026
0.482	-0.003052	0.000226	0.000672	-0.000362	0.002455	0.003202	-0.069057	-0.019761
0.4825	-0.005846	0.004699	0.008221	-0.000986	0.002745	0.002249	-0.050935	-0.020638
0.483	-0.006411	0.006076	0.011136	-0.000477	0.002107	0.000621	-0.032022	-0.02009
0.4835	-0.003581	0.005131	0.0099	0.000726	0.001602	0.000318	-0.02092	-0.019586
0.484	-0.000944	0.005217	0.007949	0.001073	0.001818	0.000802	-0.014897	-0.01988
0.4845	-0.000921	0.006879	0.006665	0.000614	0.00212	0.000227	-0.005562	-0.020071
0.485	-0.000808	0.007196	0.005442	-0.000665	0.002035	-0.000174	0.009898	-0.019526
0.4855	0.001529	0.004403	0.004085	-0.002008	0.001018	0.001608	0.027509	-0.017629
0.486	0.003682	0.000282	0.00334	-0.000877	-0.000286	0.0041	0.042896	-0.01443
0.4865	0.003808	-0.002002	0.004052	0.001317	-0.000105	0.004761	0.053165	-0.01203
0.487	0.00321	-0.001435	0.005148	0.000964	0.001374	0.003206	0.053898	-0.011294
0.4875	0.002417	-0.000155	0.003903	-0.000793	0.002146	0.001226	0.042026	-0.008885
0.488	0.001291	0.000183	0.000431	-0.001132	0.001161	0.000782	0.022777	-0.000743
0.4885	0.000754	0.001206	-0.001493	3.8e-05	-0.000568	0.001368	0.006902	0.013059
0.489	0.000695	0.004236	0.0001	0.001144	-0.00156	0.00119	0.000817	0.027396
0.4895	1.3e-05	0.006521	0.00289	0.001372	-0.002358	-0	0.005056	0.036361
0.49	-0.001063	0.00551	0.003856	0.00089	-0.003766	-0.000845	0.016903	0.037889
0.4905	-0.001398	0.002672	0.001978	0.000496	-0.00432	-0.000167	0.029489	0.034257
0.491	-0.000855	9.9e-05	-0.001929	0.00203	-0.003082	0.001409	0.035929	0.029753
0.4915	0.000166	-0.001545	-0.005146	0.005042	-0.002015	0.002666	0.035511	0.026921
0.492	0.001617	-0.003095	-0.005158	0.00698	-0.002712	0.003343	0.03166	0.026115
0.4925	0.002753	-0.007263	-0.003164	0.007874	-0.003696	0.003149	0.026836	0.027168
0.493	0.002905	-0.015004	-0.002281	0.007831	-0.003564	0.001688	0.021902	0.028115
0.4935	0.002364	-0.021443	-0.002781	0.004869	-0.002472	-3.2e-05	0.016335	0.026434
0.494	0.00085	-0.019854	-0.002377	-0.001453	-0.000416	-2e-06	0.005971	0.022487
0.4945	-0.001459	-0.010624	-0.000148	-0.008377	0.001873	0.002194	-0.014719	0.018277
0.495	-0.002686	-0.001778	0.002359	-0.011388	0.003437	0.004707	-0.045709	0.014351
0.4955	-0.001748	0.000616	0.002981	-0.008922	0.004588	0.00588	-0.080188	0.009888
0.496	0.000206	-0.001352	0.001148	-0.004565	0.005431	0.005771	-0.109158	0.005539
0.4965	0.001266	-0.001599	-0.001109	-0.002025	0.005029	0.005063	-0.122601	0.003504
0.497	0.000995	0.001808	-0.001343	-0.001383	0.002763	0.004394	-0.107665	0.003133
0.4975	0.000615	0.005494	0.0006	-0.000986	-0.000317	0.004676	-0.05739	0.000796
0.498	0.000533	0.007027	0.003051	-0.000213	-0.002228	0.005729	0.013152	-0.003809
0.4985	0.000167	0.00649	0.004207	0.000193	-0.001988	0.005318	0.071311	-0.006616
0.499	0.000114	0.003027	0.003626	-0.000794	0.00012	0.002276	0.095565	-0.00644
0.4995	0.001174	-0.004624	0.002977	-0.002274	0.002786	-0.001437	0.094342	-0.006379
0.5	0.002365	-0.01488	0.003852	-0.001653	0.004338	-0.003252	0.089936	-0.007787
0.5005	0.002333	-0.022159	0.005534	0.000776	0.004292	-0.002232	0.087307	-0.009885
0.501	0.000923	-0.020583	0.0067	0.001681	0.002885	1.4e-05	0.070131	-0.011943
0.5015	-0.001422	-0.009944	0.007078	-0.000744	0.000797	0.000122	0.026719	-0.013165
0.502	-0.004375	0.00342	0.006966	-0.006474	-0.00034	-0.002945	-0.030623	-0.013907
0.5025	-0.007825	0.011892	0.007074	-0.015791	0.000225	-0.005873	-0.072343	-0.015269
0.503	-0.011682	0.013444	0.00756	-0.027457	0.000796	-0.005773	-0.076213	-0.016877
0.5035	-0.015586	0.01205	0.007301	-0.037741	-0.001007	-0.003937	-0.047465	-0.017551
0.504	-0.018384	0.010911	0.005248	-0.044563	-0.00385	-0.002538	-0.011663	-0.018048
0.5045	-0.018748	0.009607	0.001633	-0.048194	-0.004101	-0.002145	0.011017	-0.018997
0.505	-0.016983	0.007232	-0.001522	-0.04907	-0.002191	-0.002409	0.018184	-0.01809
0.5055	-0.014531	0.004807	-0.001949	-0.04774	-0.000917	-0.00219	0.017174	-0.015016
0.506	-0.011585	0.003894	-0.00044	-0.042255	-0.001297	-0.000593	0.014189	-0.01281
0.5065	-0.007176	0.00471	8.9e-05	-0.029168	-0.003075	0.002428	0.011922	-0.011845
0.507	-0.001443	0.00657	-0.001277	-0.010007	-0.004948	0.005453	0.010889	-0.010322
0.5075	0.004664	0.007527	-0.003075	0.00952	-0.005657	0.005546	0.009026	-0.008878
0.507999999999999	0.010265	0.005793	-0.004195	0.025787	-0.005251	0.002266	0.003827	-0.008366
0.508499999999999	0.013666	0.003104	-0.004739	0.038174	-0.004004	-0.000988	-0.004617	-0.007029
0.508999999999999	0.014375	0.002432	-0.00432	0.046106	-0.002067	-0.001656	-0.01453	-0.004221
0.509499999999999	0.014677	0.003362	-0.00244	0.050818	-0.000434	-0.001122	-0.022704	-0.001204
0.509999999999999	0.016082	0.003769	-0.000617	0.055369	0.000375	-0.001619	-0.022307	0.001403
0.510499999999999	0.017189	0.002957	-0.000701	0.058931	0.001538	-0.002485	-0.005906	0.002921
0.510999999999999	0.016475	0.00085	-0.002424	0.059209	0.003136	-0.002877	0.022979	0.003419
0.511499999999999	0.014452	-0.001813	-0.003771	0.05674	0.003493	-0.003552	0.045046	0.003216
0.511999999999999	0.012132	-0.003357	-0.00279	0.05141	0.002757	-0.004482	0.04237	0.00158
0.512499999999999	0.009426	-0.002772	-0.000249	0.04123	0.002794	-0.005156	0.019851	-0.000283
0.512999999999999	0.005958	-0.000512	0.001087	0.025681	0.003604	-0.004767	-2.4e-05	-0.000702
0.513499999999999	0.002282	0.001093	0.000418	0.009154	0.003594	-0.00268	-0.003807	-0.000891
0.513999999999999	-0.000627	0.000229	-0.000548	-0.001978	0.002836	-0.000227	0.001825	-0.001576
0.514499999999999	-0.002509	-0.001619	-0.000738	-0.006045	0.002662	0.000495	0.005684	-0.000985
0.514999999999999	-0.003357	-0.001676	-0.001362	-0.005874	0.002812	-0.001189	0.005132	0.001089
0.515499999999999	-0.003189	0.000198	-0.002953	-0.005238	0.002177	-0.00374	0.002217	0.002033
0.515999999999999	-0.002747	0.001384	-0.003251	-0.005919	0.001493	-0.0045	-0.000724	0.001116
0.516499999999999	-0.002367	0.000787	-0.001055	-0.007308	0.002466	-0.002255	-0.001855	0.000285
0.516999999999998	-0.001879	-0.000398	0.000943	-0.008987	0.004023	0.000573	-0.001376	0.000539
0.517499999999998	-0.001963	-0.001582	-0.00016	-0.010507	0.002963	0.000453	-0.000887	0.001795
0.517999999999998	-0.002867	-0.002188	-0.003629	-0.011246	-0.000955	-0.001738	-0.001678	0.003365
0.518499999999998	-0.003393	-0.001417	-0.006217	-0.011867	-0.003953	-0.002524	-0.002979	0.003341
0.518999999999998	-0.002163	-0.000133	-0.004942	-0.01268	-0.002686	-0.001333	-0.002944	0.000897
0.519499999999998	0.00038	0.000671	-0.000144	-0.012074	0.001349	-0.000509	-0.001866	-0.001681
0.519999999999998	0.001565	0.00171	0.003847	-0.009797	0.003952	-0.00143	-0.001273	-0.001807
0.520499999999998	0.000168	0.002725	0.004262	-0.008103	0.004286	-0.002345	-0.001685	-0.000105
0.520999999999998	-0.001952	0.001509	0.00279	-0.007255	0.00426	-0.001975	-0.003162	0.000905
0.521499999999998	-0.003527	-0.001798	0.001493	-0.005345	0.004588	-0.001881	-0.006841	0.0005
0.521999999999998	-0.004982	-0.003671	0.000609	-0.002421	0.005072	-0.002159	-0.013835	-0.000159
0.522499999999998	-0.00583	-0.00204	-0.000402	-0.000963	0.004967	-0.000278	-0.021339	-0.000576
0.522999999999998	-0.005041	0.001346	-0.001881	-0.002305	0.002975	0.00373	-0.024453	-0.000695
0.523499999999998	-0.003309	0.003422	-0.003137	-0.004378	-0.00038	0.006234	-0.022521	4.2e-05
0.523999999999998	-0.001713	0.003018	-0.003822	-0.00521	-0.001791	0.005592	-0.02014	0.000882
0.524499999999998	-0.000258	0.001124	-0.005063	-0.005661	0.000472	0.003907	-0.023033	5.7e-05
0.524999999999998	0.000437	-0.001702	-0.006495	-0.006324	0.003126	0.002464	-0.03217	-0.001204
0.525499999999998	4e-05	-0.005358	-0.005396	-0.005718	0.003364	0.000728	-0.041774	-0.000214
0.525999999999997	-0.000125	-0.008202	-0.001639	-0.003385	0.002882	-0.0007	-0.044847	0.001098
0.526499999999997	0.000281	-0.007554	0.000738	-0.001525	0.002644	-0.00119	-0.039753	-0.000777
0.526999999999997	0.000182	-0.002063	-0.000372	-0.001442	0.000958	-0.001389	-0.0327	-0.0041
0.527499999999997	-0.000197	0.00584	-0.002042	-0.001652	-0.002028	-0.000929	-0.032924	-0.005022
0.527999999999997	0.000108	0.010846	-0.000976	-0.000834	-0.004291	0.000338	-0.043859	-0.003373
0.528499999999997	0.000206	0.009177	0.001746	0.000749	-0.005678	0.0001	-0.06159	-0.000885
0.528999999999997	-0.000926	0.002284	0.002637	0.001144	-0.006638	-0.002163	-0.078599	0.00117
0.529499999999997	-0.002248	-0.004103	0.001362	-0.002165	-0.006181	-0.003033	-0.082784	0.001563
0.529999999999997	-0.003191	-0.006448	0.000108	-0.00702	-0.005103	-0.001163	-0.057955	0.00085
0.530499999999997	-0.003849	-0.006793	-0.000928	-0.00837	-0.005381	0.00072	0.000145	0.000219
0.530999999999997	-0.003197	-0.009448	-0.002624	-0.007167	-0.005349	0.001141	0.064666	-0.001291
0.531499999999997	-0.001342	-0.016553	-0.003574	-0.006905	-0.003546	0.000713	0.090911	-0.003341
0.531999999999997	-0.000118	-0.024892	-0.001799	-0.00547	-0.003413	-0.000385	0.061468	-0.003383
0.532499999999997	0.00031	-0.027152	0.001426	-0.000768	-0.006626	-0.001202	0.007814	-0.001537
0.532999999999997	0.001357	-0.019214	0.002836	0.004213	-0.009749	-0.0005	-0.021914	6e-05
0.533499999999997	0.002641	-0.006444	0.000763	0.006267	-0.010225	0.001038	-0.005652	0.000779
0.533999999999997	0.002911	0.001441	-0.003719	0.004489	-0.008174	0.002293	0.046431	0.00073
0.534499999999997	0.002502	0.001256	-0.007789	0.00067	-0.005015	0.002698	0.112086	0.000741
0.534999999999996	0.002362	-0.002637	-0.009227	-0.001993	-0.002847	0.001843	0.167567	0.001995
0.535499999999996	0.002764	-0.004167	-0.007474	-0.003147	-0.001836	0.000432	0.187213	0.00327
0.535999999999996	0.002971	-0.000454	-0.003316	-0.00377	-0.000711	-0.000456	0.158316	0.00274
0.536499999999996	0.001742	0.005107	0.001848	-0.004773	0.000204	-0.001078	0.099528	0.001176
0.536999999999996	-0.001238	0.007387	0.007373	-0.008503	-0.000139	-0.001897	0.045614	0.000259
0.537499999999996	-0.004766	0.007103	0.012349	-0.015394	-0.001632	-0.001724	0.01415	-6.8e-05
0.537999999999996	-0.007196	0.008131	0.014606	-0.02218	-0.002899	0.000393	-0.000508	-0.000563
0.538499999999996	-0.00812	0.01078	0.013458	-0.025024	-0.002239	0.002082	-0.008176	-8.2e-05
0.538999999999996	-0.007992	0.012539	0.011146	-0.023849	0.000498	0.000659	-0.011586	0.001607
0.539499999999996	-0.007413	0.011956	0.010091	-0.02237	0.003404	-0.00268	-0.011179	0.001806
0.539999999999996	-0.007526	0.009813	0.010237	-0.023027	0.004089	-0.00503	-0.009727	-0.000125
0.540499999999996	-0.008416	0.007244	0.009563	-0.02538	0.002037	-0.004634	-0.009665	-0.001891
0.540999999999996	-0.008651	0.004	0.006403	-0.026735	-0.000854	-0.002431	-0.011004	-0.00179
0.541499999999996	-0.007533	0.000631	0.001729	-0.024088	-0.002192	-0.001151	-0.012997	-0.000149
0.541999999999996	-0.00549	-0.000876	-0.001636	-0.017223	-0.000589	-0.000809	-0.015156	0.001009
0.542499999999996	-0.002461	-0.000199	-0.002521	-0.006546	0.002821	0.000859	-0.016701	0.000572
0.542999999999996	0.002003	0.00076	-0.002039	0.007876	0.004524	0.00389	-0.017822	-0.000172
0.543499999999996	0.006803	2.1e-05	-0.001309	0.022966	0.003081	0.005958	-0.019599	0.000394
0.543999999999995	0.01058	-0.001607	-0.000525	0.035081	0.000908	0.005487	-0.021396	0.001662
0.544499999999995	0.013695	-0.001392	5.5e-05	0.044566	-0.000213	0.003287	-0.021932	0.002188
0.544999999999995	0.016395	0.000986	-7.1e-05	0.052542	-0.000711	0.001831	-0.021616	0.001993
0.545499999999995	0.017991	0.003856	-0.000972	0.057903	-0.000651	0.002683	-0.02156	0.001688
0.545999999999995	0.018224	0.006059	-0.002719	0.059523	0.000104	0.004126	-0.02209	0.001728
0.546499999999995	0.017345	0.007571	-0.004635	0.055155	0.001224	0.003815	-0.022394	0.001278
0.546999999999995	0.014587	0.009174	-0.004807	0.042436	0.002061	0.002185	-0.021137	1.3e-05
0.547499999999995	0.008977	0.010306	-0.003682	0.0246	0.002079	0.000262	-0.01836	0.000681
0.547999999999995	0.002675	0.008932	-0.00445	0.008195	0.001916	-0.001524	-0.01601	0.003641
0.548499999999995	-0.000572	0.004855	-0.006987	-0.00255	0.002007	-0.002212	-0.015021	0.00466
0.548999999999995	-0.000338	0.001029	-0.007159	-0.006707	0.00183	-0.001477	-0.01405	0.001798
0.549499999999995	0.000384	-7.7e-05	-0.003728	-0.00716	0.001647	-0.000337	-0.012417	-0.00166
0.549999999999995	-0.000477	0.000245	-0.000278	-0.007787	0.001671	0.000583	-0.010861	-0.002016
0.550499999999995	-0.00194	-0.001293	-0.000171	-0.008091	0.000771	0.001238	-0.009248	0.000413
0.550999999999995	-0.002416	-0.006	-0.003358	-0.005809	-0.000739	0.00077	-0.007571	0.002293
0.551499999999995	-0.001579	-0.011365	-0.006991	-0.003472	-0.000448	-0.000484	-0.007906	0.001291
0.551999999999995	-0.000267	-0.014405	-0.007858	-0.004052	0.001849	-0.000517	-0.011306	-0.000537
0.552499999999995	0.000185	-0.014758	-0.005495	-0.005174	0.003729	0.001177	-0.014754	0.00048
0.552999999999994	-0.000306	-0.012576	-0.002591	-0.005449	0.003878	0.003235	-0.014792	0.003395
0.553499999999994	-0.000852	-0.008153	-0.002011	-0.006977	0.003534	0.003838	-0.012619	0.004831
0.553999999999994	-0.001538	-0.004079	-0.003983	-0.009267	0.004196	0.002534	-0.012033	0.005055
0.554499999999994	-0.002369	-0.002015	-0.005862	-0.010081	0.004552	0.00092	-0.013788	0.006646
0.554999999999994	-0.002167	0.00242	-0.0043	-0.009995	0.003282	0.000892	-0.016123	0.009283
0.555499999999994	-0.001317	0.013722	0.000838	-0.009587	0.001965	0.002793	-0.018254	0.010131
0.555999999999994	-0.001641	0.02678	0.004396	-0.007082	0.001207	0.004735	-0.019269	0.008721
0.556499999999994	-0.002388	0.031949	0.001403	-0.003434	-6.2e-05	0.004932	-0.016402	0.006249
0.556999999999994	-0.002058	0.026783	-0.005365	-0.002297	-0.001769	0.003665	-0.006869	0.003044
0.557499999999994	-0.001801	0.017547	-0.008167	-0.003587	-0.002998	0.001565	0.009691	-2.4e-05
0.557999999999994	-0.002581	0.01147	-0.003804	-0.004023	-0.002893	-0.000933	0.028802	-0.001868
0.558499999999994	-0.003836	0.008421	0.003174	-0.002824	-0.001196	-0.002706	0.040099	-0.001383
0.558999999999994	-0.005213	0.00289	0.006553	-0.002485	0.001622	-0.003383	0.034162	0.001894
0.559499999999994	-0.00659	-0.0052	0.00592	-0.004132	0.003993	-0.003799	0.012505	0.004863
0.559999999999994	-0.007821	-0.010167	0.005515	-0.006001	0.00397	-0.003914	-0.013463	0.003454
0.560499999999994	-0.008231	-0.011263	0.007337	-0.007307	0.002573	-0.002952	-0.032641	-0.00165
0.560999999999994	-0.00709	-0.012814	0.009246	-0.008129	0.003164	-0.001438	-0.040614	-0.00506
0.561499999999994	-0.004851	-0.014977	0.008878	-0.007225	0.005995	-0.000811	-0.03861	-0.00304
0.561999999999994	-0.002607	-0.012953	0.007035	-0.00511	0.007244	-0.00137	-0.030425	0.000948
0.562499999999993	-0.00154	-0.004116	0.006804	-0.00435	0.004634	-0.001765	-0.019652	0.000789
0.562999999999993	-0.001763	0.006792	0.009046	-0.004838	0.000891	-0.001013	-0.007961	-0.003003
0.563499999999993	-0.001682	0.011388	0.010604	-0.004127	-0.000228	-0.000308	0.002293	-0.005059
0.563999999999993	-0.00033	0.007356	0.009567	-0.002797	0.001168	-0.000895	0.007808	-0.00412
0.564499999999993	0.001201	-0.001086	0.007482	-0.003295	0.002036	-0.001792	0.01026	-0.002603
0.564999999999993	0.001287	-0.009845	0.005213	-0.004335	0.000921	-0.001831	0.015236	-0.001858
0.565499999999993	-0.000195	-0.015298	0.002978	-0.003481	0.00023	-0.001215	0.024007	-0.002638
0.565999999999993	-0.001864	-0.014293	0.001783	-0.001171	0.002634	-0.000597	0.032483	-0.004705
0.566499999999993	-0.002151	-0.007536	0.001667	0.000442	0.006844	-0.000494	0.037105	-0.006592
0.566999999999993	-0.000878	0.000411	0.001599	-0.000213	0.00957	-0.000856	0.038508	-0.007334
0.567499999999993	-2.1e-05	0.004717	0.000752	-0.001587	0.009749	-0.001043	0.039108	-0.006536
0.567999999999993	-0.000388	0.004363	-0.000599	-0.001073	0.008705	-0.000252	0.039002	-0.003977
0.568499999999993	-0.00016	0.00218	-0.001428	0.001025	0.007395	0.001321	0.03744	0.000173
0.568999999999993	0.001194	0.00094	-0.001813	0.002156	0.005907	0.001909	0.035354	0.003726
0.569499999999993	0.002021	0.000928	-0.002581	0.001054	0.004161	0.000124	0.031432	0.004757
0.569999999999993	0.001167	0.00073	-0.003418	-0.000627	0.001299	-0.00296	0.016962	0.005497
0.570499999999993	-0.00049	-0.000774	-0.003446	-0.001167	-0.003066	-0.004067	-0.019098	0.006953
0.570999999999993	-0.001259	-0.003313	-0.003305	-5.8e-05	-0.006959	-0.001878	-0.072367	0.006998
0.571499999999992	-0.000534	-0.005043	-0.004038	0.002368	-0.007111	0.00122	-0.11357	0.006163
0.571999999999992	0.001774	-0.004107	-0.004799	0.004172	-0.002699	0.003281	-0.110925	0.005838
0.572499999999992	0.004598	-0.001472	-0.004687	0.003969	0.001298	0.003752	-0.065612	0.00541
0.572999999999992	0.005136	-0.000466	-0.004174	0.002901	-0.002241	0.002287	-0.012667	0.004624
0.573499999999992	0.003155	-0.002259	-0.004006	0.00285	-0.012718	4e-05	0.016104	0.003926
0.573999999999992	0.001432	-0.003975	-0.003888	0.003598	-0.021237	-0.001116	0.017488	0.004109
0.574499999999992	0.000386	-0.002793	-0.002275	0.003691	-0.022133	-0.001647	0.007707	0.006287
0.574999999999992	-0.000971	0.00099	0.000438	0.002671	-0.017667	-0.003244	0.002221	0.008878
0.575499999999992	-0.001708	0.004937	0.001719	0.000443	-0.012535	-0.004732	0.004524	0.007364
0.575999999999992	-0.001278	0.005507	0.000919	-0.001499	-0.00934	-0.0041	0.009399	0.000837
0.576499999999992	-0.000452	0.001788	-0.00035	-0.001411	-0.007218	-0.002351	0.012828	-0.005457
0.576999999999992	0.000121	-0.002293	-0.000612	-0.001242	-0.004979	-0.001766	0.014113	-0.005986
0.577499999999992	0.000112	-0.003775	-0.000505	-0.002146	-0.00354	-0.002951	0.013989	-0.001329
0.577999999999992	-0.000105	-0.003163	-0.00216	-0.001661	-0.002977	-0.00355	0.013967	0.002331
0.578499999999992	0.000119	-0.00147	-0.005947	4.3e-05	-0.001746	-0.000907	0.013301	0.001049
0.578999999999992	0.000595	-0.000791	-0.009714	0.000649	0.001622	0.003251	0.010123	-0.002859
0.579499999999992	0.000828	-0.004621	-0.01147	0.000857	0.006548	0.004982	0.005568	-0.004913
0.579999999999992	0.001139	-0.013288	-0.01186	0.001114	0.009137	0.003753	0.000433	-0.00423
0.580499999999991	0.001992	-0.019198	-0.012788	0.000139	0.006128	0.001351	-0.007483	-0.003416
0.580999999999991	0.002943	-0.013043	-0.013695	-0.000745	-0.001025	-0.001855	-0.017426	-0.00261
0.581499999999991	0.002929	0.002288	-0.012541	0.000346	-0.006517	-0.005102	-0.024614	-0.000733
0.581999999999991	0.001208	0.010465	-0.008887	0.002491	-0.00557	-0.005467	-0.026883	0.000241
0.582499999999991	-0.001236	-0.002462	-0.003692	0.004246	-0.002187	-0.002055	-0.025793	-0.000666
0.582999999999991	-0.002105	-0.032193	0.000363	0.005009	-0.003888	0.001275	-0.023958	-0.001224
0.583499999999991	-0.000595	-0.059162	0.000682	0.005237	-0.007624	0.000599	-0.02406	6.4e-05
0.583999999999991	0.001387	-0.069169	-0.00084	0.0057	-0.00357	-0.002763	-0.026574	0.001243
0.584499999999991	0.001635	-0.066824	-0.000482	0.005275	0.008954	-0.004545	-0.029529	-0.000254
0.584999999999991	0.000295	-0.066159	0.002471	0.003423	0.021243	-0.003058	-0.03079	-0.001907
0.585499999999991	-0.001178	-0.073712	0.006789	0.001914	0.026608	-0.000185	-0.025647	0.001631
0.585999999999991	-0.002104	-0.082174	0.010762	0.001213	0.024334	0.001846	-0.004943	0.010014
0.586499999999991	-0.002302	-0.072652	0.01243	0.000913	0.017857	0.002724	0.034601	0.01681
0.586999999999991	-0.001716	-0.027583	0.011418	0.001758	0.012641	0.002748	0.077804	0.017542
0.587499999999991	-0.000637	0.045938	0.009816	0.002851	0.012819	0.002453	0.099553	0.013932
0.587999999999991	0.001126	0.108886	0.0093	0.002225	0.017967	0.002778	0.089956	0.010697
0.588499999999991	0.003527	0.119282	0.009072	0.000787	0.022694	0.002978	0.063431	0.010875
0.588999999999991	0.005021	0.07522	0.008192	-0.000225	0.023007	0.001801	0.040774	0.01285
0.58949999999999	0.004412	0.01856	0.007239	-0.001573	0.022097	0.000729	0.029479	0.012974
0.58999999999999	0.001964	-0.011705	0.006329	-0.002677	0.022115	0.001709	0.024562	0.012316
0.59049999999999	-0.000733	-0.012591	0.004406	-0.002337	0.014097	0.003704	0.021022	0.013414
0.59099999999999	-0.001579	-0.000779	0.002424	-0.000912	-0.01346	0.004603	0.018246	0.012675
0.59149999999999	-0.000924	0.013827	0.002891	0.000686	-0.054865	0.003755	0.015877	0.00639
0.59199999999999	-0.000513	0.031148	0.004517	0.001092	-0.082467	0.001428	0.012292	-0.002018
0.59249999999999	-0.000362	0.049859	0.004226	-0.000186	-0.074046	-0.001401	0.007476	-0.008246
0.59299999999999	-0.000117	0.061899	0.002964	-0.001513	-0.043928	-0.002839	0.003346	-0.012598
0.59349999999999	-0.000624	0.060376	0.002786	-0.001087	-0.025317	-0.002504	0.000729	-0.01695
0.59399999999999	-0.002246	0.050735	0.003103	0.000107	-0.025143	-0.002333	-0.0006	-0.022724
0.59449999999999	-0.003224	0.04509	0.002683	-2.6e-05	-0.024193	-0.002822	3.9e-05	-0.029415
0.59499999999999	-0.002028	0.044959	0.001446	-0.000752	-0.014014	-0.002627	0.001738	-0.033904
0.59549999999999	0.000144	0.0415	-0.000135	-0.001358	-0.004649	-0.002042	0.000193	-0.035258
0.59599999999999	0.001367	0.032044	-0.001544	-0.002405	-0.002646	-0.002485	-0.006547	-0.035366
0.59649999999999	0.001392	0.025215	-0.001697	-0.002785	-0.002501	-0.003668	-0.014194	-0.034423
0.59699999999999	0.001098	0.028928	-0.000266	-0.001708	0.000751	-0.004053	-0.017214	-0.031975
0.59749999999999	0.000961	0.039507	0.001202	-0.000399	0.003782	-0.002326	-0.015607	-0.02944
0.59799999999999	0.000844	0.043654	0.001323	-0.000158	0.003532	0.002191	-0.014597	-0.028198
0.598499999999989	0.000596	0.031606	3.4e-05	-0.000462	0.002501	0.007051	-0.015813	-0.027781
0.598999999999989	0.000522	0.010472	-0.001505	-0.000575	0.004875	0.00789	-0.014428	-0.027936
0.599499999999989	0.001007	-0.003506	-0.00167	-0.000741	0.012992	0.005141	-0.009065	-0.028181
0.599999999999989	0.001689	-0.005828	-0.000197	-0.000108	0.023776	0.003064	-0.004542	-0.025455
0.600499999999989	0.001952	-0.004457	0.001986	0.001182	0.029513	0.003125	-0.002286	-0.018785
0.600999999999989	0.001908	-0.005216	0.004243	0.001186	0.025675	0.003656	0.002851	-0.010565
0.601499999999989	0.002325	-0.006779	0.005843	0.000515	0.016276	0.002896	0.016739	-0.001191
0.601999999999989	0.003287	-0.006744	0.005262	0.001158	0.008623	0.000964	0.03931	0.008333
0.602499999999989	0.004271	-0.00574	0.00222	0.00264	0.005227	0.000486	0.060595	0.012532
0.602999999999989	0.005139	-0.005061	-0.00099	0.004164	0.00434	0.002387	0.066234	0.009275
0.603499999999989	0.005	-0.005575	-0.002882	0.005794	0.003755	0.003035	0.050812	0.005133
0.603999999999989	0.003331	-0.007262	-0.004536	0.005928	0.002662	-9.8e-05	0.02197	0.005421
0.604499999999989	0.001552	-0.008273	-0.006351	0.003589	0.001785	-0.004678	-0.009923	0.008663
0.604999999999989	6.8e-05	-0.008065	-0.007417	0.000507	0.000938	-0.006874	-0.038997	0.012895
0.605499999999989	-0.001894	-0.008534	-0.008244	-0.002294	-0.000968	-0.004989	-0.059718	0.015702
0.605999999999989	-0.003448	-0.011036	-0.010633	-0.004278	-0.00397	-0.001417	-0.064685	0.014262
0.606499999999989	-0.003476	-0.014672	-0.014197	-0.004342	-0.006517	6.9e-05	-0.052108	0.010728
0.606999999999989	-0.002581	-0.017299	-0.015545	-0.003678	-0.006169	0.000114	-0.03297	0.009164
0.607499999999988	-0.001687	-0.018573	-0.01339	-0.003961	-0.002993	0.001782	-0.022264	0.010194
0.607999999999988	-0.001063	-0.020166	-0.011014	-0.003787	-0.001037	0.004013	-0.019095	0.011972
0.608499999999988	-0.001054	-0.023247	-0.011262	-0.001818	-0.003473	0.004071	-0.008526	0.012449
0.608999999999988	-0.00175	-0.028535	-0.013065	-0.000415	-0.007679	0.003852	0.010543	0.011139
0.609499999999988	-0.002352	-0.036717	-0.014492	-0.001813	-0.008522	0.006507	0.018539	0.009798
0.609999999999988	-0.002085	-0.045561	-0.015456	-0.003615	-0.005342	0.010709	0.005183	0.011129
0.610499999999988	-0.00119	-0.048254	-0.015336	-0.002979	-0.001156	0.013427	-0.014946	0.015081
0.610999999999988	-0.0013	-0.039771	-0.011956	-0.001561	0.002267	0.013043	-0.026924	0.017399
0.611499999999988	-0.003214	-0.024035	-0.004698	-0.002115	0.004509	0.009301	-0.033508	0.015375
0.611999999999988	-0.004938	-0.009513	0.003375	-0.0035	0.005144	0.003465	-0.039743	0.011907
0.612499999999988	-0.004892	-8.9e-05	0.007574	-0.002951	0.004158	-0.002938	-0.041287	0.010472
0.612999999999988	-0.004115	0.004739	0.00652	-0.001501	0.002553	-0.00793	-0.0343	0.010798
0.613499999999988	-0.004148	0.003633	0.003169	-0.000845	0.002076	-0.009751	-0.021116	0.012151
0.613999999999988	-0.004977	-0.006135	0.001193	0.000424	0.003151	-0.009462	-0.004734	0.014462
0.614499999999988	-0.005354	-0.021895	0.002332	0.001651	0.004067	-0.008616	0.012217	0.015605
0.614999999999988	-0.004524	-0.034531	0.005546	0.000762	0.003312	-0.007091	0.023868	0.014008
0.615499999999988	-0.002673	-0.03661	0.008171	-0.000866	0.001417	-0.005552	0.024431	0.011584
0.615999999999988	-0.000484	-0.027962	0.008938	-0.001377	0.00041	-0.005218	0.016092	0.010857
0.616499999999988	0.000973	-0.011912	0.009203	-0.000977	0.002247	-0.005812	0.007824	0.011705
0.616999999999987	0.001252	0.008941	0.010584	-0.000631	0.007006	-0.00626	0.005235	0.012737
0.617499999999987	0.00153	0.03066	0.012728	-0.000754	0.011853	-0.005253	0.005788	0.013189
0.617999999999987	0.003133	0.043879	0.013666	-0.000458	0.013498	-0.00284	0.005094	0.011001
0.618499999999987	0.004619	0.036811	0.011337	0.000982	0.011465	-0.001566	0.003641	0.005302
0.618999999999987	0.00304	0.007692	0.006346	0.002296	0.007541	-0.002481	0.003903	0.000355
0.619499999999987	-0.0003	-0.029231	0.001939	0.001151	0.004208	-0.003563	0.004957	-0.000898
0.619999999999987	-0.001343	-0.057204	-6e-05	-0.00212	0.00318	-0.003336	0.004502	-0.001644
0.620499999999987	-0.000389	-0.070323	-0.000408	-0.003712	0.003048	-0.002411	0.002747	-0.004414
0.620999999999987	0.000135	-0.064892	-0.00053	-0.002136	0.0006	-0.0017	0.001643	-0.006211
0.621499999999987	0.000623	-0.031524	-0.000969	-0.001369	-0.004341	-0.0008	0.002423	-0.004338
0.621999999999987	0.001225	0.025766	-0.000184	-0.00375	-0.008788	0.000212	0.004413	-0.001312
0.622499999999987	0.000504	0.074447	0.00379	-0.005286	-0.010357	0.000147	0.005639	-0.000455
0.622999999999987	-0.000772	0.081717	0.009393	-0.00326	-0.008223	-0.001176	0.003648	-0.001674
0.623499999999987	-0.000726	0.054238	0.012293	0.000359	-0.003764	-0.003116	-0.004288	-0.002339
0.623999999999987	0.00087	0.02869	0.010845	0.003237	-0.000132	-0.003698	-0.017782	-0.001143
0.624499999999987	0.003161	0.025539	0.007506	0.003257	0.001538	-0.001122	-0.031311	-0.000721
0.624999999999987	0.003759	0.031713	0.004978	0.001008	0.002588	0.002083	-0.040712	-0.003162
0.625499999999987	0.001584	0.0285	0.003609	0.000386	0.004676	0.002598	-0.048022	-0.006667
0.625999999999986	-0.000404	0.017105	0.002442	0.001954	0.009235	0.001661	-0.056193	-0.008381
0.626499999999986	-8.8e-05	0.010177	0.001461	0.002374	0.015264	0.001978	-0.063426	-0.007372
0.626999999999986	0.001499	0.01182	0.00113	0.001244	0.017912	0.002886	-0.06625	-0.005592
0.627499999999986	0.002829	0.015046	0.001085	0.001734	0.014023	0.002306	-0.064155	-0.005721
0.627999999999986	0.002944	0.012626	0.001509	0.003858	0.007335	0.001021	-0.057118	-0.008219
0.628499999999986	0.002017	0.003371	0.002611	0.004395	0.003147	0.000486	-0.044052	-0.010476
0.628999999999986	0.001091	-0.008175	0.003048	0.002275	0.00222	-0.000329	-0.026716	-0.008714
0.629499999999986	0.000958	-0.014178	0.002383	-0.000644	0.003305	-0.001661	-0.008939	6.7e-05
0.629999999999986	0.001575	-0.010641	0.002147	-0.001172	0.005708	-0.001571	0.01073	0.017123
0.630499999999986	0.001756	-0.002731	0.003431	0.001125	0.008179	-0.000175	0.040682	0.035315
0.630999999999986	0.000468	0.0015	0.005765	0.002552	0.009447	0.000371	0.080656	0.040012
0.631499999999986	-0.001065	0.00197	0.006904	0.001673	0.010285	-0.000348	0.106002	0.027276
0.631999999999986	-0.001034	0.00584	0.004824	0.001214	0.011792	-0.001196	0.087131	0.008937
0.632499999999986	-6.8e-05	0.0134	0.001378	0.001812	0.012487	-0.000985	0.029681	-0.004747
0.632999999999986	0.000323	0.013001	-0.000267	0.001151	0.01121	0.000747	-0.02353	-0.013908
0.633499999999986	-0.000262	-0.002329	-2.8e-05	-0.000204	0.009485	0.002873	-0.035165	-0.021366
0.633999999999986	-0.001189	-0.022421	0.001048	5.9e-05	0.00892	0.0039	-0.003584	-0.027195
0.634499999999986	-0.001478	-0.03486	0.001863	0.001047	0.009535	0.004447	0.044359	-0.029866
0.634999999999985	-0.001354	-0.044028	0.000349	0.000862	0.010155	0.006664	0.075244	-0.027957
0.635499999999985	-0.001471	-0.062525	-0.004316	-0.000273	0.009749	0.010134	0.07054	-0.023341
0.635999999999985	-0.001592	-0.090866	-0.010878	-0.000849	0.007713	0.011501	0.038787	-0.020435
0.636499999999985	-0.001506	-0.119168	-0.017126	0.000303	0.003434	0.008986	0.009382	-0.019323
0.636999999999985	-0.001545	-0.142643	-0.020969	0.002322	-0.002359	0.004201	0.008631	-0.016455
0.637499999999985	-0.001981	-0.159401	-0.021621	0.00245	-0.008071	0.000149	0.031335	-0.012357
0.637999999999985	-0.002214	-0.16069	-0.019133	-4e-06	-0.013301	-0.001682	0.039963	-0.010706
0.638499999999985	-0.001635	-0.142541	-0.014462	-0.001354	-0.018454	-0.002686	0.005445	-0.010163
0.638999999999985	-0.000671	-0.113038	-0.009143	0.00058	-0.024258	-0.004086	-0.053734	-0.004251
0.639499999999985	0.000171	-0.07192	-0.003614	0.002194	-0.030452	-0.004247	-0.082907	0.008762
0.639999999999985	0.000623	-0.007496	0.001751	0.000789	-0.033912	-0.001432	-0.043054	0.020683
0.640499999999985	0.000374	0.068414	0.00563	-0.000799	-0.032033	0.003319	0.046465	0.020854
0.640999999999985	-0.000248	0.109541	0.007085	5.7e-05	-0.026806	0.007027	0.117559	0.008118
0.641499999999985	-0.000221	0.08698	0.006398	0.001738	-0.022655	0.007983	0.117333	-0.007707
0.641999999999985	0.000851	0.033436	0.004633	0.002533	-0.021024	0.007379	0.062054	-0.017548
0.642499999999985	0.00213	0.007072	0.002702	0.003588	-0.017754	0.006194	0.012208	-0.020577
0.642999999999985	0.003358	0.027799	0.001541	0.004899	-0.007651	0.004248	0.0014	-0.019776
0.643499999999985	0.004997	0.07364	0.001221	0.003931	0.007657	0.002354	0.013307	-0.016974
0.643999999999984	0.006248	0.122283	-0.000118	0.001125	0.019145	0.00089	0.019677	-0.013142
0.644499999999984	0.006728	0.167769	-0.002881	-0.000531	0.020107	-0.000653	0.012731	-0.010267
0.644999999999984	0.007624	0.201791	-0.005115	-0.000594	0.014167	-0.002111	0.000621	-0.009996
0.645499999999984	0.008527	0.208181	-0.006467	0.00031	0.010025	-0.003913	-0.006763	-0.010781
0.645999999999984	0.007617	0.185024	-0.007751	0.001655	0.011021	-0.006885	0.000378	-0.009883
0.646499999999984	0.005323	0.153521	-0.007553	0.001003	0.013584	-0.009477	0.029631	-0.007848
0.646999999999984	0.003415	0.133598	-0.004286	-0.002164	0.013643	-0.009591	0.076821	-0.007161
0.647499999999984	0.001684	0.121276	2e-06	-0.003363	0.011636	-0.008379	0.123725	-0.006873
0.647999999999984	-0.000653	0.100233	0.00276	-0.001551	0.010934	-0.007751	0.143196	-0.004782
0.648499999999984	-0.003183	0.066165	0.00438	-0.00172	0.011835	-0.006803	0.106684	-0.002893
0.648999999999984	-0.006199	0.028046	0.005583	-0.004283	0.010869	-0.004147	0.009582	-0.003277
0.649499999999984	-0.009775	-0.007155	0.005837	-0.004717	0.00678	-0.000791	-0.098703	-0.003381
0.649999999999984	-0.011652	-0.038584	0.004616	-0.002577	0.001731	0.001796	-0.142321	-2.8e-05
0.650499999999984	-0.010731	-0.062736	0.002561	-0.001061	-0.002634	0.003248	-0.10165	0.007083
0.650999999999984	-0.009474	-0.071191	0.00132	-0.000632	-0.006181	0.002573	-0.038156	0.016399
0.651499999999984	-0.009096	-0.061183	0.001147	0.000269	-0.009215	-0.000495	-0.015389	0.024941
0.651999999999984	-0.007762	-0.0437	0.000126	0.001156	-0.01209	-0.004081	-0.031631	0.030285
0.652499999999984	-0.005246	-0.034084	-0.002674	0.00145	-0.015551	-0.007102	-0.053255	0.033942
0.652999999999983	-0.002801	-0.032126	-0.005174	0.000996	-0.021291	-0.008914	-0.07489	0.038127
0.653499999999983	-0.000588	-0.019747	-0.004362	-0.000265	-0.030295	-0.008601	-0.112304	0.042483
0.653999999999983	0.000932	0.012059	-8.7e-05	-0.000608	-0.038905	-0.007117	-0.156011	0.047191
0.654499999999983	0.001053	0.043169	0.003716	4.9e-05	-0.039814	-0.005161	-0.165205	0.051453
0.654999999999983	0.000478	0.045671	0.003751	-0.000177	-0.031265	-0.002564	-0.11337	0.050741
0.655499999999983	0.000335	0.019362	0.001868	-0.001482	-0.020682	-0.000319	-0.026696	0.042401
0.655999999999983	0.000208	-0.008949	0.001364	-0.002267	-0.015615	0.000879	0.033492	0.029071
0.656499999999983	-0.000543	-0.019254	0.001949	-0.001226	-0.016213	0.001155	0.032301	0.015223
0.656999999999983	-0.001255	-0.017575	0.00154	0.000222	-0.017253	0.000783	-0.001317	0.004405
0.657499999999983	-0.001876	-0.019769	-0.000294	0.000642	-0.013874	-0.000207	-0.014147	-0.002866
0.657999999999983	-0.002803	-0.028704	-0.001851	0.000253	-0.005897	-0.001529	0.005995	-0.008649
0.658499999999983	-0.00347	-0.036959	-0.000939	-0.000851	0.002074	-0.00201	0.028704	-0.012505
0.658999999999983	-0.003484	-0.040877	0.002152	-0.00164	0.005873	-0.001657	0.032343	-0.012464
0.659499999999983	-0.003151	-0.039443	0.004528	-0.00161	0.005974	-0.001677	0.026099	-0.010521
0.659999999999983	-0.003153	-0.031609	0.004538	-0.001373	0.005109	-0.002266	0.023609	-0.010002
0.660499999999983	-0.003245	-0.023017	0.003307	-0.001103	0.005278	-0.002269	0.023608	-0.011789
0.660999999999983	-0.001725	-0.024981	0.002162	-0.001154	0.006907	-0.000635	0.020834	-0.015168
0.661499999999983	0.00146	-0.041562	0.001056	-0.001029	0.007709	0.001301	0.016844	-0.01801
0.661999999999982	0.003652	-0.062213	-0.000598	8.1e-05	0.005534	0.001235	0.015183	-0.018516
0.662499999999982	0.003185	-0.071881	-0.002231	0.000987	0.002765	-0.000266	0.015306	-0.017475
0.662999999999982	0.001448	-0.066726	-0.001789	0.000506	0.003607	-0.001195	0.014963	-0.014813
0.663499999999982	0.000661	-0.0561	0.000843	-0.000436	0.007645	-0.00108	0.012928	-0.006511
0.663999999999982	0.001631	-0.050899	0.002095	-0.001425	0.008942	7.1e-05	0.009038	0.007522
0.664499999999982	0.003471	-0.054776	-0.000608	-0.002565	0.001821	0.001571	0.00577	0.018947
0.664999999999982	0.004657	-0.063668	-0.004313	-0.002196	-0.01299	0.001766	0.005357	0.021802
0.665499999999982	0.004977	-0.068188	-0.004253	-0.000322	-0.026518	0.001963	0.005725	0.019182
0.665999999999982	0.00541	-0.064567	-0.000901	0.000974	-0.028048	0.004511	0.004533	0.017756
0.666499999999982	0.006203	-0.064615	0.00111	0.001612	-0.017657	0.00707	0.002519	0.019802
0.666999999999982	0.006297	-0.082259	-0.000202	0.001906	-0.00813	0.006658	0.001981	0.021544
0.667499999999982	0.00454	-0.113054	-0.001983	0.001193	-0.00993	0.004627	0.004179	0.020113
0.667999999999982	0.002009	-0.135851	-0.001558	0.000129	-0.019592	0.003787	0.006831	0.016912
0.668499999999982	0.001372	-0.132685	-0.000552	0.00052	-0.027729	0.005094	0.007888	0.013246
0.668999999999982	0.002937	-0.101502	-0.001271	0.002275	-0.031154	0.007131	0.009043	0.008
0.669499999999982	0.004203	-0.047335	-0.003001	0.003157	-0.032288	0.007444	0.010929	0.001207
0.669999999999982	0.003667	0.029338	-0.003034	0.002436	-0.03368	0.005584	0.011303	-0.004667
0.670499999999982	0.003114	0.120561	0.001001	0.001042	-0.035282	0.003869	0.009426	-0.009787
0.670999999999982	0.004384	0.192042	0.007326	-5.7e-05	-0.033581	0.003691	0.006999	-0.017018
0.671499999999981	0.005653	0.203732	0.010276	-0.000171	-0.021365	0.004109	0.004657	-0.026093
0.671999999999981	0.004742	0.156643	0.00742	-0.000296	0.009537	0.004365	0.000836	-0.032675
0.672499999999981	0.002958	0.096352	0.002344	-0.001911	0.055423	0.004574	-0.005228	-0.032865
0.672999999999981	0.002076	0.064088	-0.000343	-0.004064	0.092002	0.004709	-0.011299	-0.028207
0.673499999999981	0.001879	0.062954	-0.000288	-0.00414	0.096445	0.004098	-0.01421	-0.025209
0.673999999999981	0.00211	0.072467	-0.001173	-0.002056	0.076957	0.001963	-0.014113	-0.02805
0.674499999999981	0.002397	0.073069	-0.00422	1.1e-05	0.061231	-0.000968	-0.01375	-0.032824
0.674999999999981	0.002123	0.055451	-0.005485	0.002059	0.059543	-0.002599	-0.014235	-0.032469
0.675499999999981	0.002099	0.025121	-0.002132	0.003988	0.058121	-0.001878	-0.015862	-0.026244
0.675999999999981	0.002716	-0.001685	0.0031	0.003645	0.04635	0.000541	-0.019233	-0.018286
0.676499999999981	0.002516	-0.013593	0.005372	0.00092	0.032111	0.003219	-0.022531	-0.011855
0.676999999999981	0.000515	-0.013978	0.003423	-0.002013	0.025942	0.004382	-0.020973	-0.008647
0.677499999999981	-0.002205	-0.014767	0.000119	-0.003177	0.026354	0.003902	-0.011904	-0.00735
0.677999999999981	-0.003338	-0.020947	-0.001554	-0.002429	0.027464	0.003492	5.5e-05	-0.006016
0.678499999999981	-0.002771	-0.0264	-0.000843	-0.001364	0.027645	0.003357	0.007568	-0.005875
0.678999999999981	-0.003012	-0.025817	0.00093	-0.001078	0.028063	0.00239	0.007912	-0.008053
0.679499999999981	-0.004066	-0.020257	0.00166	-0.001754	0.029982	0.000881	0.00297	-0.011032
0.679999999999981	-0.003159	-0.012942	0.001185	-0.002273	0.031979	-0.000296	-0.002697	-0.012086
0.68049999999998	-0.000351	-0.006078	0.002501	-0.001234	0.031164	-0.001295	-0.004273	-0.010585
0.68099999999998	0.001162	0.001827	0.008056	1.4e-05	0.029351	-0.002284	6.6e-05	-0.00947
0.68149999999998	0.000275	0.01342	0.014269	-0.000366	0.031386	-0.002833	0.008978	-0.01038
0.68199999999998	-0.001169	0.024417	0.014142	-0.001432	0.034295	-0.003221	0.01814	-0.010878
0.68249999999998	-0.002222	0.024397	0.00698	-0.001523	0.024415	-0.003754	0.022563	-0.008526
0.68299999999998	-0.003205	0.01082	-0.001036	-0.00092	-0.006637	-0.00341	0.022708	-0.004477
0.68349999999998	-0.003855	-0.005043	-0.005961	-0.000593	-0.045818	-0.002286	0.022567	-0.001298
0.68399999999998	-0.003573	-0.012015	-0.009491	2.4e-05	-0.068387	-0.002107	0.022456	6.6e-05
0.68449999999998	-0.002169	-0.009678	-0.013446	0.001131	-0.062446	-0.002621	0.020628	-0.000808
0.68499999999998	-0.000448	-0.002967	-0.015289	0.001365	-0.038033	-0.002655	0.017273	-0.002914
0.68549999999998	7e-05	0.004363	-0.011991	0.00021	-0.014002	-0.003239	0.013344	-0.003733
0.68599999999998	-0.0009	0.009773	-0.005719	-0.000936	-0.001627	-0.005201	0.009378	-0.003486
0.68649999999998	-0.00159	0.011512	-0.001685	-0.000889	-0.004421	-0.007094	0.005555	-0.004247
0.68699999999998	-0.00111	0.008826	-0.002079	-0.000146	-0.024114	-0.0074	0.002214	-0.00549
0.68749999999998	-0.000873	0.000787	-0.004798	0.001306	-0.051544	-0.005609	0.000413	-0.004618
0.68799999999998	-0.001456	-0.012883	-0.006871	0.002875	-0.061276	-0.002031	0.000136	-0.000305
0.68849999999998	-0.002447	-0.028154	-0.007044	0.002613	-0.037791	0.001231	-0.001034	0.006243
0.68899999999998	-0.003565	-0.035684	-0.005439	0.000937	-9.3e-05	0.002261	-0.00552	0.011408
0.689499999999979	-0.003763	-0.02887	-0.003135	-0.000433	0.020202	0.001836	-0.012578	0.011943
0.689999999999979	-0.003376	-0.01339	-0.001382	5.1e-05	0.017236	0.000986	-0.018349	0.009957
0.690499999999979	-0.003592	-0.001345	0.000598	0.002608	0.009553	-8.8e-05	-0.020934	0.010015
0.690999999999979	-0.003517	0.002923	0.003978	0.004071	0.008755	-0.00145	-0.02535	0.010951
0.691499999999979	-0.002484	0.003993	0.007582	0.002951	0.007902	-0.004007	-0.037445	0.008542
0.691999999999979	-0.001213	0.004793	0.009963	0.001882	-0.001209	-0.006734	-0.051884	0.004671
0.692499999999979	-0.000263	0.003084	0.010298	0.001804	-0.012589	-0.006642	-0.056395	0.004056
0.692999999999979	-0.000333	-0.002559	0.007559	0.001113	-0.013724	-0.003481	-0.051103	0.005441
0.693499999999979	-0.001659	-0.011127	0.002732	0.000606	-0.007197	-9.2e-05	-0.052824	0.005734
0.693999999999979	-0.003164	-0.02019	-0.000763	0.001389	-0.012323	0.001406	-0.073227	0.005496
0.694499999999979	-0.004051	-0.025445	-0.001112	0.000974	-0.036945	0.001759	-0.099607	0.004992
0.694999999999979	-0.004651	-0.024695	-0.000426	-0.000889	-0.060641	0.002323	-0.10731	0.003347
0.695499999999979	-0.004348	-0.01901	-0.001022	-0.001558	-0.058973	0.003415	-0.08613	0.001073
