Time	L_BF	L_GAL	L_TA	L_VL	R_BF	R_GAL	R_TA	R_VL
0	0.006724	-0.002454	0.006659	-0.001759	-0.000262	-0.001533	0.10197	-0.040384
0.0005	0.008267	-0.004698	0.004397	-0.001042	0.002826	-0.00528	0.090222	-0.080523
0.001	0.007534	-0.005984	0.001149	-9.3e-05	0.005008	-0.008941	0.042627	-0.120266
0.0015	0.006091	-0.006528	-0.001082	0.000439	0.005747	-0.012328	-0.000544	-0.152351
0.002	0.005689	-0.006464	-0.000926	0.000671	0.005342	-0.01497	-0.008677	-0.163122
0.0025	0.006325	-0.005683	0.000387	0.000397	0.004345	-0.016601	-0.013877	-0.142147
0.003	0.007269	-0.004827	0.001974	-0.000889	0.002065	-0.017686	-0.036594	-0.095193
0.0035	0.007575	-0.00402	0.00412	-0.001991	-0.002032	-0.017943	-0.058893	-0.043856
0.004	0.007326	-0.003218	0.006093	-0.001653	-0.005789	-0.016505	-0.081527	-0.008194
0.0045	0.00774	-0.003198	0.00582	-0.001065	-0.005581	-0.013855	-0.126905	0.00759
0.005	0.008667	-0.003705	0.002445	-0.001418	-0.001093	-0.011317	-0.181587	0.011872
0.0055	0.007408	-0.003522	-0.001853	-0.001675	0.003275	-0.01042	-0.197085	0.013751
0.006	0.002588	-0.002357	-0.004067	-0.001764	0.004409	-0.01157	-0.155716	0.016726
0.0065	-0.003166	-0.001069	-0.003554	-0.00237	0.003533	-0.012186	-0.095014	0.021385
0.007	-0.006341	-0.000512	-0.001399	-0.002413	0.002824	-0.010271	-0.059563	0.027724
0.0075	-0.005179	-9e-05	0.00167	-0.002397	0.00384	-0.007941	-0.057315	0.033213
0.008	-0.000575	0.001456	0.005529	-0.003991	0.006108	-0.007452	-0.070486	0.037012
0.0085	0.003623	0.003332	0.009845	-0.005343	0.005731	-0.00834	-0.084723	0.044936
0.009	0.004416	0.003513	0.012991	-0.004088	0.000553	-0.009362	-0.095495	0.060944
0.0095	0.00363	0.002714	0.013387	-0.001838	-0.005234	-0.008675	-0.098054	0.076259
0.01	0.004363	0.002967	0.012257	-0.000621	-0.00741	-0.004436	-0.08226	0.076881
0.0105	0.006257	0.003497	0.011452	0.000207	-0.007526	0.002936	-0.042903	0.060554
0.011	0.007648	0.002981	0.010073	0.001032	-0.007798	0.010512	0.006082	0.03755
0.0115	0.008015	0.002665	0.006459	0.001793	-0.008149	0.013678	0.037737	0.018944
0.012	0.007837	0.004209	0.000953	0.002194	-0.008384	0.010297	0.037455	0.007328
0.0125	0.008169	0.006484	-0.004192	0.000142	-0.007586	0.005035	0.016299	-0.002819
0.013	0.009127	0.006109	-0.007671	-0.003342	-0.005325	0.004798	-0.003929	-0.013798
0.0135	0.009871	0.002167	-0.011039	-0.0036	-0.003932	0.009438	-0.011934	-0.021132
0.014	0.009557	-0.002056	-0.013688	-0.000417	-0.004927	0.007027	-0.010995	-0.022756
0.0145	0.00782	-0.003548	-0.011779	0.001898	-0.005745	-0.016375	-0.008545	-0.021768
0.015	0.005341	-0.002722	-0.006525	0.001568	-0.004291	-0.05532	-0.007641	-0.020299
0.0155	0.003317	-0.001135	-0.003708	0.000173	-0.002989	-0.081602	-0.007673	-0.017742
0.016	0.002505	0.001196	-0.005486	-0.001385	-0.004336	-0.072276	-0.007096	-0.013526
0.0165	0.002746	0.003721	-0.010479	-0.002824	-0.006186	-0.036382	-0.003939	-0.007186
0.017	0.003978	0.004429	-0.017463	-0.003626	-0.005255	-0.004156	0.002369	0.000248
0.0175	0.005775	0.002809	-0.024436	-0.003933	-0.002714	0.006481	0.009162	0.005604
0.018	0.006125	-6e-06	-0.027573	-0.003585	-0.001551	0.002297	0.013888	0.007176
0.0185	0.004738	-0.002238	-0.024528	-0.002789	-0.001694	-0.001476	0.018406	0.005188
0.019	0.003759	-0.00239	-0.017472	-0.002311	-0.002112	0.001898	0.025436	0.00123
0.0195	0.003489	-0.000925	-0.011356	-0.001541	-0.002728	0.009238	0.032658	-0.001897
0.02	0.002873	0.000764	-0.009205	-0.00018	-0.002781	0.0145	0.036507	-0.002317
0.0205	0.002757	0.002061	-0.009408	0.000676	-0.001055	0.013854	0.038963	-0.000694
0.021	0.004398	0.002866	-0.00884	0.001549	0.001644	0.006873	0.043273	0.000103
0.0215	0.006926	0.00307	-0.006718	0.00386	0.002387	-0.002281	0.047787	-0.001076
0.022	0.008691	0.002809	-0.004128	0.006209	0.00069	-0.005887	0.050436	-0.002115
0.0225	0.008816	0.002262	-0.002844	0.006837	-0.000429	-0.001383	0.053999	-0.000217
0.023	0.007867	0.00187	-0.004066	0.006403	0.000542	0.004494	0.06236	0.005692
0.0235	0.007736	0.002327	-0.006448	0.005737	0.001728	0.005581	0.074236	0.011324
0.024	0.008313	0.002703	-0.006699	0.005949	0.001	0.003153	0.083428	0.010066
0.0245	0.007437	0.001455	-0.002706	0.007266	-0.001046	0.000852	0.084605	0.002292
0.025	0.005384	-0.000445	0.003202	0.006868	-0.001902	1.7e-05	0.077527	-0.005437
0.0255	0.004226	-0.000752	0.006029	0.003825	-0.000477	0.000106	0.064133	-0.009367
0.026	0.003386	0.000657	0.005058	0.001208	0.001386	0.000399	0.043807	-0.010798
0.0265	0.001382	0.002135	0.003644	0.000453	0.001431	0.00128	0.017653	-0.012223
0.027	-0.000514	0.002563	0.003124	2.4e-05	0.000315	0.00325	-0.007042	-0.015539
0.0275	-0.001299	0.001443	0.003319	-0.000641	0.000142	0.0055	-0.02435	-0.021156
0.028	-0.001272	-0.000238	0.004587	-0.001264	0.002168	0.006581	-0.037752	-0.028007
0.0285	-0.000143	-0.000367	0.006336	-0.002036	0.00699	0.005478	-0.053954	-0.034131
0.029	0.000924	0.000359	0.007692	-0.001561	0.012887	0.002218	-0.065218	-0.034859
0.0295	0.000706	-3.4e-05	0.009191	2.6e-05	0.015904	-0.000885	-0.047157	-0.027059
0.03	-6.5e-05	-0.00042	0.011428	-0.000643	0.014193	-0.000692	0.007553	-0.017064
0.0305	-0.001225	0.000579	0.013045	-0.003226	0.009848	0.001967	0.061817	-0.014238
0.031	-0.002149	0.001746	0.012554	-0.004654	0.006113	0.003791	0.070415	-0.018264
0.0315	-0.001459	0.00256	0.009716	-0.004949	0.004847	0.003933	0.042987	-0.021716
0.032	-0.000479	0.003974	0.0027	-0.004808	0.005788	0.002962	0.036959	-0.020268
0.0325	-0.001186	0.005207	-0.009584	-0.003768	0.006534	0.001406	0.077589	-0.015258
0.033	-0.002482	0.004918	-0.022497	-0.002392	0.005385	0.000679	0.120225	-0.011877
0.0335	-0.002306	0.003681	-0.030259	-0.002019	0.004001	0.002007	0.114553	-0.014323
0.034	-0.001043	0.002002	-0.032576	-0.001658	0.004346	0.003785	0.073877	-0.019572
0.0345	-0.000942	0.000121	-0.032932	-5e-06	0.005563	0.002994	0.048069	-0.021294
0.035	-0.002189	-0.000263	-0.032541	0.000944	0.005988	-0.000148	0.054004	-0.01848
0.0355	-0.002107	0.001439	-0.028893	0.000568	0.005108	-0.002993	0.068459	-0.014543
0.036	0.000181	0.002693	-0.020855	0.001333	0.003366	-0.003854	0.070494	-0.011803
0.0365	0.002571	0.001377	-0.010058	0.003305	0.002104	-0.002547	0.060468	-0.00962
0.037	0.003525	-0.000944	0.006438	0.003884	0.002452	-0.000634	0.048305	-0.006051
0.0375	0.002909	-0.001547	0.038298	0.002031	0.003521	0.000454	0.041473	-0.001169
0.038	0.001306	-0.000243	0.08584	-0.001246	0.004107	0.0021	0.041654	0.001723
0.0385	-0.000314	0.001196	0.126119	-0.004542	0.004547	0.006712	0.045089	0.000666
0.039	-0.001791	0.000969	0.130839	-0.006202	0.004234	0.014879	0.045548	-0.001839
0.0395	-0.003447	-0.000659	0.097838	-0.005434	0.001979	0.025301	0.041248	-0.004061
0.04	-0.004841	-0.001287	0.053427	-0.003467	-0.000714	0.035599	0.036844	-0.006942
0.0405	-0.004864	-0.000158	0.0235	-0.002291	-0.001285	0.043375	0.034948	-0.009511
0.041	-0.003086	0.000936	0.01136	-0.002767	0.000468	0.047291	0.032069	-0.009463
0.0415	-0.001701	0.00046	0.004718	-0.004447	0.002052	0.047427	0.025979	-0.006346
0.042	-0.002754	-0.000429	-0.004547	-0.006809	0.001488	0.044856	0.020115	-0.002206
0.0425	-0.004337	0.000979	-0.012652	-0.008585	-0.000206	0.038761	0.018659	-0.000272
0.043	-0.004613	0.004062	-0.013014	-0.007274	-0.001707	0.024685	0.021229	-0.001107
0.0435	-0.004192	0.005617	-0.007132	-0.002424	-0.003167	-0.000935	0.023651	-0.002181
0.044	-0.002891	0.005193	-0.003254	0.003337	-0.004518	-0.035435	0.023101	-0.001435
0.0445	-0.001095	0.004186	-0.00668	0.007271	-0.005622	-0.068187	0.020963	0.000969
0.045	-0.000684	0.002943	-0.01502	0.008058	-0.00652	-0.084191	0.020104	0.002477
0.0455	-0.000842	0.00187	-0.022475	0.006203	-0.006474	-0.075732	0.021763	0.001224
0.046	0.00161	0.001482	-0.025452	0.003846	-0.005551	-0.05187	0.025026	-0.000951
0.0465	0.006918	0.001068	-0.023451	0.003048	-0.005655	-0.029857	0.027179	-0.001026
0.047	0.012824	0.000134	-0.017551	0.00312	-0.007347	-0.017043	0.025921	0.000827
0.0475	0.019222	-0.000199	-0.010248	0.001787	-0.008829	-0.009942	0.022029	0.001126
0.048	0.026695	0.000868	-0.004708	0.000316	-0.009638	-0.006317	0.018672	-0.000893
0.0485	0.033076	0.00209	-0.002549	0.001518	-0.010584	-0.006277	0.017426	-0.002039
0.049	0.035471	0.002055	-0.003116	0.003953	-0.010966	-0.00688	0.01606	-0.001727
0.0495	0.0341	0.001133	-0.004294	0.004346	-0.010047	-0.00437	0.013384	-0.002417
0.05	0.032755	0.000349	-0.004451	0.003239	-0.008018	2e-06	0.012569	-0.00439
0.0505	0.034296	0.000336	-0.004256	0.002934	-0.004635	0.001985	0.014461	-0.005485
0.051	0.037279	0.000728	-0.005019	0.002427	-0.000276	0.000826	0.013185	-0.005006
0.0515	0.038812	0.000133	-0.006575	0.000611	0.003703	-0.001303	0.002764	-0.004257
0.052	0.038381	-0.001239	-0.0078	-0.001071	0.00722	-0.003083	-0.01579	-0.004015
0.0525	0.037061	-0.001712	-0.007706	-0.001226	0.010505	-0.004941	-0.036008	-0.003291
0.053	0.033698	-0.001129	-0.007169	0.000626	0.012539	-0.007	-0.052561	-0.001204
0.0535	0.020897	-0.000146	-0.007844	0.002127	0.013036	-0.006866	-0.066934	0.000803
0.054	-0.011963	0.00067	-0.008595	0.000164	0.011816	-0.003405	-0.087736	0.005565
0.0545	-0.060232	0.000431	-0.007742	-0.003035	0.008161	0.000475	-0.123567	0.024686
0.055	-0.093618	-0.000786	-0.006473	-0.002434	0.00398	0.002412	-0.174013	0.06123
0.0555	-0.084558	-0.002322	-0.006043	0.001895	0.002997	0.003621	-0.22172	0.093434
0.056	-0.04353	-0.00395	-0.005674	0.004929	0.005379	0.00649	-0.227307	0.093508
0.0565	-0.007587	-0.00522	-0.004552	0.003812	0.006888	0.010783	-0.149264	0.060697
0.057	0.001555	-0.00544	-0.003002	0.000191	0.004958	0.014366	0.002843	0.019844
0.0575	-0.010868	-0.004319	-0.00177	-0.001909	0.001233	0.017076	0.151038	-0.009712
0.058	-0.033639	-0.002735	-0.001459	0.00011	-0.00193	0.019914	0.227384	-0.028218
0.0585	-0.055933	-0.001987	-0.002048	0.003544	-0.002766	0.022636	0.249735	-0.042736
0.059	-0.062223	-0.001861	-0.002283	0.004655	-0.001375	0.023421	0.265302	-0.053169
0.0595	-0.045783	-0.001172	-0.001042	0.00396	-0.000794	0.01969	0.250817	-0.054423
0.06	-0.020572	-0.00017	0.000591	0.002602	-0.003415	0.011537	0.154145	-0.047935
0.0605	-0.006072	0.000192	-0.000422	-0.000188	-0.007901	0.002824	0.018766	-0.042318
0.061	-0.006273	0.000645	-0.00749	-0.003191	-0.010452	-0.00374	-0.036853	-0.041625
0.0615	-0.010639	0.0021	-0.020272	-0.003697	-0.008727	-0.009496	0.021081	-0.041081
0.062	-0.010272	0.003821	-0.031421	-0.002797	-0.00476	-0.015303	0.094226	-0.036
0.0625	-0.005823	0.004015	-0.03383	-0.003024	-0.002548	-0.01824	0.093273	-0.027746
0.063	-0.001951	0.00182	-0.029675	-0.00307	-0.002525	-0.01568	0.045388	-0.01994
0.0635	-0.000233	-0.000377	-0.025291	-0.001196	-0.001329	-0.008258	0.024331	-0.013654
0.064	0.000807	-3.7e-05	-0.020898	0.000134	0.003064	0.001834	0.043542	-0.007465
0.0645	0.001783	0.00119	-0.011692	-0.00195	0.008625	0.011084	0.061011	-0.000973
0.065	0.002427	0.000374	0.003072	-0.005663	0.011698	0.015252	0.044517	0.003557
0.0655	0.003252	-0.001703	0.017043	-0.007253	0.010982	0.013787	-0.004345	0.003965
0.066	0.004417	-0.002077	0.023672	-0.005409	0.007706	0.010249	-0.06438	0.001658
0.0665	0.005744	-0.00134	0.022442	-0.001589	0.003373	0.008274	-0.105982	0.000244
0.067	0.007311	-0.00231	0.017575	0.001207	-0.000396	0.010838	-0.101626	0.000193
0.0675	0.008507	-0.004108	0.013183	0.001481	-0.001735	0.016072	-0.045966	-0.000709
0.068	0.008625	-0.00406	0.00817	0.000651	-0.000491	0.013732	0.031473	-0.001211
0.0685	0.008268	-0.002666	-0.004299	0.000434	0.000965	-0.001921	0.082964	0.001878
0.069	0.008915	-0.001823	-0.027665	0.00147	0.000837	-0.01881	0.080431	0.006874
0.0695	0.011019	-0.001592	-0.052992	0.002777	0.000124	-0.017302	0.038136	0.009378
0.07	0.014475	-0.001617	-0.064115	0.003234	-1.1e-05	0.006341	-0.003979	0.008977
0.0705	0.01958	-0.001902	-0.05015	0.003969	-0.000804	0.034071	-0.020703	0.007965
0.071	0.024598	-0.001757	-0.010655	0.00522	-0.003128	0.043029	-0.021266	0.006726
0.0715	0.02647	-0.001581	0.046294	0.005624	-0.004537	0.023117	-0.026311	0.005117
0.0720000000000001	0.025373	-0.002781	0.1057	0.005435	-0.002948	-0.015519	-0.038403	0.004151
0.0725000000000001	0.024767	-0.003779	0.146208	0.004506	-0.000645	-0.050677	-0.046148	0.003267
0.0730000000000001	0.026409	-0.001684	0.148524	0.001628	-0.001147	-0.069322	-0.045382	0.001423
0.0735000000000001	0.028534	0.002273	0.112303	-0.001853	-0.004027	-0.075696	-0.042411	9.2e-05
0.0740000000000001	0.029198	0.004784	0.060627	-0.004034	-0.005881	-0.075645	-0.041292	0.000882
0.0745000000000001	0.027668	0.005389	0.02179	-0.007191	-0.005986	-0.062707	-0.039982	0.003246
0.0750000000000001	0.023744	0.004961	0.007855	-0.013906	-0.007084	-0.030416	-0.037311	0.005565
0.0755000000000001	0.017767	0.003355	0.0093	-0.021937	-0.009487	0.008745	-0.035028	0.006332
0.0760000000000001	0.008023	0.001406	0.00802	-0.028281	-0.009311	0.032351	-0.034677	0.004989
0.0765000000000001	-0.010672	0.000651	-0.003987	-0.032431	-0.004991	0.032564	-0.035204	0.003278
0.0770000000000001	-0.038679	0.000461	-0.021058	-0.034869	0.000259	0.020882	-0.033565	0.002691
0.0775000000000001	-0.06348	-0.000612	-0.035422	-0.036656	0.003265	0.012174	-0.029469	0.001679
0.0780000000000001	-0.069029	-0.001847	-0.043233	-0.037917	0.002599	0.012352	-0.025774	0.000747
0.0785000000000001	-0.053997	-0.00123	-0.042864	-0.036276	-0.001017	0.018379	-0.023897	0.003268
0.0790000000000001	-0.033887	0.001082	-0.034952	-0.029094	-0.004083	0.021203	-0.023739	0.007673
0.0795000000000001	-0.021862	0.001975	-0.02298	-0.016756	-0.004342	0.011065	-0.024725	0.006646
0.0800000000000001	-0.015771	-0.000466	-0.012407	-0.001618	-0.003407	-0.011586	-0.025661	-0.002424
0.0805000000000001	-0.008895	-0.003429	-0.007774	0.014398	-0.003504	-0.03073	-0.025895	-0.011679
0.0810000000000001	-0.001889	-0.002955	-0.009193	0.029087	-0.00413	-0.028122	-0.024899	-0.012806
0.0815000000000001	0.001351	-0.000161	-0.012809	0.04084	-0.004032	-0.004916	-0.022599	-0.006453
0.0820000000000001	0.001803	0.001071	-0.014625	0.048552	-0.003392	0.020207	-0.019839	0.000228
0.0825000000000001	0.004392	0.000344	-0.013287	0.050738	-0.002123	0.035464	-0.016832	0.001974
0.0830000000000001	0.010536	-0.000601	-0.010485	0.049518	-0.000775	0.043561	-0.013835	0.002019
0.0835000000000001	0.015906	-0.000542	-0.009087	0.048722	-0.000247	0.048649	-0.011993	0.006638
0.0840000000000001	0.016398	0.00088	-0.010115	0.046858	0.001844	0.048748	-0.011922	0.015027
0.0845000000000001	0.012821	0.001785	-0.012094	0.040924	0.007277	0.036555	-0.012764	0.020653
0.0850000000000001	0.008526	0.000494	-0.013723	0.032983	0.01375	0.006689	-0.013058	0.019854
0.0855000000000001	0.005555	-0.001426	-0.014715	0.025324	0.019708	-0.031473	-0.012407	0.013941
0.0860000000000001	0.005216	-0.001308	-0.013813	0.017496	0.023948	-0.053388	-0.011409	0.006029
0.0865000000000001	0.00868	0.00105	-0.010665	0.011619	0.023111	-0.04082	-0.010382	0.000395
0.0870000000000001	0.014218	0.002923	-0.007341	0.009786	0.017658	-0.003058	-0.009185	-0.000338
0.0875000000000001	0.017137	0.00265	-0.005464	0.008745	0.013497	0.030516	-0.007916	0.001603
0.0880000000000001	0.014158	0.001463	-0.005569	0.004088	0.013454	0.040295	-0.006828	0.002506
0.0885000000000001	0.006454	0.000471	-0.006744	-0.004678	0.014406	0.032965	-0.005674	0.001159
0.0890000000000001	-0.001512	-0.000225	-0.007462	-0.014421	0.013405	0.027137	-0.003901	-0.000478
0.0895000000000001	-0.005479	-0.000473	-0.008653	-0.02103	0.011573	0.029608	-0.001025	-0.000145
0.0900000000000001	-0.004803	-8e-06	-0.011195	-0.021269	0.0123	0.032194	0.002378	0.00113
0.0905000000000001	-0.002426	0.001536	-0.011991	-0.015715	0.014455	0.027185	0.004451	0.000886
0.0910000000000001	-0.000898	0.004001	-0.008191	-0.010013	0.007958	0.015745	0.004712	-0.001171
0.0915000000000001	-0.000721	0.005513	-0.003652	-0.007747	-0.01717	0.00153	0.004537	-0.002906
0.0920000000000001	-0.001995	0.004164	-0.003458	-0.007232	-0.054071	-0.012907	0.004367	-0.002712
0.0925000000000001	-0.004265	0.001568	-0.003887	-0.007696	-0.076245	-0.021804	0.003714	-0.00182
0.0930000000000001	-0.005767	0.000734	0.002267	-0.009283	-0.063303	-0.019405	0.003506	-0.001304
0.0935000000000001	-0.005337	0.001626	0.013441	-0.009877	-0.028223	-0.008374	0.004765	-0.000253
0.0940000000000001	-0.003944	0.002053	0.019608	-0.008506	-0.00302	0.001545	0.005926	0.001011
0.0945000000000001	-0.003308	0.000875	0.013684	-0.00776	-0.000199	0.003896	0.005003	-0.000121
0.0950000000000001	-0.004193	-0.000691	0.000829	-0.009088	-0.00464	0.002186	0.002713	-0.004191
0.0955000000000001	-0.00575	-0.001218	-0.006751	-0.009013	-0.001371	0.003364	0.001613	-0.00688
0.0960000000000001	-0.005523	-0.00061	-0.007256	-0.0055	0.006547	0.007498	0.003358	-0.005251
0.0965000000000001	-0.001236	0.000966	-0.015518	-0.002458	0.010445	0.008512	0.006761	-0.002755
0.0970000000000001	0.005874	0.002159	-0.043425	-0.002713	0.010156	0.002654	0.008992	-0.002523
0.0975000000000001	0.011189	0.001043	-0.079899	-0.004533	0.010755	-0.005416	0.009458	-0.002485
0.0980000000000001	0.01144	-0.001313	-0.102671	-0.006492	0.014493	-0.0062	0.009433	-0.00125
0.0985000000000001	0.00718	-0.002154	-0.10498	-0.009471	0.019275	0.001675	0.008225	-0.000847
0.0990000000000001	0.001238	-0.001718	-0.098303	-0.013777	0.021787	0.006791	0.005226	-0.001757
0.0995000000000001	-0.003187	-0.001642	-0.090243	-0.017717	0.020448	-0.001985	0.002538	-0.002508
0.1	-0.004447	-0.00133	-0.069667	-0.019761	0.014926	-0.022453	0.001727	-0.002251
0.1005	-0.003625	-0.000296	-0.02159	-0.019522	0.004638	-0.041171	0.002208	-0.000398
0.101	-0.002557	0.000645	0.049185	-0.01807	-0.00903	-0.045584	0.002772	0.001873
0.1015	-0.001848	0.001376	0.119527	-0.017382	-0.019416	-0.0349	0.002231	0.002345
0.102	-0.001744	0.001677	0.165927	-0.016707	-0.016312	-0.02077	0.000537	0.001489
0.1025	-0.002199	0.000783	0.176276	-0.014099	0.003314	-0.015634	-0.000461	0.000968
0.103	-0.002204	-0.000384	0.153802	-0.010868	0.023506	-0.020344	0.0004	0.001397
0.1035	-0.001507	-0.000436	0.11354	-0.008783	0.020134	-0.024892	0.002017	0.003236
0.104	-0.000923	-0.001224	0.072258	-0.006204	-0.007744	-0.018331	0.003045	0.005875
0.1045	0.000412	-0.004359	0.039953	-0.001205	-0.031244	0.002418	0.003314	0.006346
0.105	0.004329	-0.006836	0.018513	0.005187	-0.025939	0.025479	0.004518	0.003241
0.1055	0.010783	-0.005833	0.006484	0.011473	0.000158	0.027925	0.008691	0.000599
0.106	0.018627	-0.002412	0.00327	0.016762	0.020768	0.000745	0.014086	0.001732
0.1065	0.025633	0.000694	0.006936	0.020936	0.021924	-0.034007	0.016896	0.00365
0.107	0.029146	0.001713	0.011205	0.025239	0.011022	-0.044574	0.017252	0.002826
0.1075	0.030212	0.001692	0.010842	0.028446	0.004762	-0.02229	0.018316	0.000332
0.108	0.032212	0.002709	0.007886	0.02785	0.013372	0.013353	0.020542	-0.000687
0.1085	0.035241	0.004301	0.00685	0.024726	0.02841	0.035383	0.020638	0.000219
0.109	0.036051	0.004104	0.0074	0.0219	0.025312	0.032596	0.016353	0.000282
0.1095	0.032618	0.00197	0.006037	0.019874	-0.008932	0.014866	0.010448	-0.001898
0.11	0.025933	0.000263	0.001629	0.018687	-0.051683	-0.001725	0.007772	-0.003361
0.1105	0.018203	-0.000296	-0.003473	0.018187	-0.065991	-0.009676	0.009186	-0.001034
0.111	0.013129	-0.000265	-0.006948	0.01668	-0.044535	-0.01005	0.010896	0.002036
0.1115	0.014696	0.0002	-0.009282	0.014489	-0.014923	-0.004884	0.010097	0.001445
0.112	0.021051	-0.000413	-0.012259	0.01315	-0.00215	0.0054	0.008158	-0.000967
0.1125	0.023791	-0.00261	-0.01675	0.009426	-0.002807	0.018536	0.007284	-0.002183
0.113	0.017608	-0.003088	-0.02303	0.001744	-0.002264	0.029626	0.00748	-0.002958
0.1135	0.008951	0.000168	-0.030738	-0.003905	-3.9e-05	0.035004	0.007357	-0.003553
0.114	0.009534	0.00375	-0.038209	-0.004493	-0.004335	0.033141	0.006397	-0.002836
0.1145	0.019486	0.003735	-0.043372	-0.00464	-0.014616	0.02415	0.005427	-0.001965
0.115	0.022556	0.000459	-0.044295	-0.00731	-0.021567	0.012921	0.00482	-0.002193
0.1155	0.00293	-0.003622	-0.039667	-0.010278	-0.018406	0.006692	0.00392	-0.001555
0.116	-0.033856	-0.006413	-0.030608	-0.01239	-0.007869	0.005442	0.002207	0.000977
0.1165	-0.063704	-0.006445	-0.020547	-0.015348	0.002144	0.001871	-0.000751	0.00324
0.117	-0.069259	-0.003828	-0.012219	-0.019916	0.007237	-0.00683	-0.005212	0.003316
0.1175	-0.054601	-0.00023	-0.006578	-0.025582	0.008028	-0.014159	-0.009091	0.000805
0.118	-0.03657	0.002585	-0.003853	-0.031549	0.007201	-0.014176	-0.010249	-0.002575
0.1185	-0.029537	0.003177	-0.003476	-0.036744	0.006468	-0.010448	-0.010607	-0.004044
0.119	-0.038312	0.000954	-0.004311	-0.040423	0.005314	-0.010087	-0.01234	-0.003605
0.1195	-0.058676	-0.002415	-0.005549	-0.042403	0.004066	-0.012948	-0.014527	-0.00274
0.12	-0.079057	-0.003829	-0.006835	-0.042501	0.004942	-0.013589	-0.015008	-0.001927
0.1205	-0.088006	-0.002191	-0.007423	-0.039027	0.008241	-0.010404	-0.011538	-0.001648
0.121	-0.085125	0.000444	-0.005768	-0.029059	0.011525	-0.00627	-0.004536	-0.00199
0.1215	-0.07704	0.001801	-0.001814	-0.01287	0.013004	-0.003263	0.000942	-0.002757
0.122	-0.063514	0.001781	0.001583	0.004991	0.012893	-0.000559	-0.001475	-0.004195
0.1225	-0.039279	0.001506	0.001502	0.021021	0.012391	0.003185	-0.014832	-0.005468
0.123	-0.008525	0.000929	-0.001227	0.033867	0.012262	0.007195	-0.035109	-0.00528
0.1235	0.015433	-0.000434	-0.00264	0.040748	0.012558	0.009163	-0.052636	-0.004533
0.124	0.025741	-0.001263	-0.001164	0.040009	0.013326	0.007445	-0.060259	-0.004413
0.1245	0.02627	-0.000388	0.001546	0.035191	0.013527	0.003491	-0.058012	-0.003624
0.125	0.021155	0.001444	0.004772	0.029802	0.01232	0.001481	-0.05213	-0.001726
0.1255	0.010556	0.002696	0.007394	0.021641	0.011216	0.002977	-0.052174	-0.001158
0.126	-0.002878	0.00227	0.007666	0.008349	0.011812	0.00452	-0.06281	-0.003155
0.1265	-0.011185	0.001125	0.007166	-0.004593	0.014146	0.001117	-0.075703	-0.005717
0.127	-0.008539	0.000977	0.007862	-0.008236	0.016381	-0.009822	-0.07149	-0.005825
0.1275	0.001029	0.001294	0.008809	-0.001834	0.015877	-0.023985	-0.03125	-0.002303
0.128	0.008797	0.000593	0.009026	0.006901	0.013151	-0.031593	0.044756	0.002081
0.1285	0.01232	-0.000904	0.008452	0.011838	0.011754	-0.029248	0.123048	0.003124
0.129	0.014431	-0.002239	0.007266	0.013144	0.012419	-0.025956	0.156138	0.001135
0.1295	0.016218	-0.003436	0.00567	0.013303	0.011949	-0.032106	0.12911	-0.000222
0.13	0.01706	-0.00425	0.003573	0.012275	0.009711	-0.046374	0.075739	-7.8e-05
0.1305	0.016316	-0.003825	0.002406	0.009241	0.00886	-0.059659	0.040279	0.00105
0.131	0.014242	-0.002255	0.005359	0.004743	0.010439	-0.06755	0.03499	0.003452
0.1315	0.013324	-8.4e-05	0.014733	-0.001404	0.012286	-0.073019	0.040824	0.00507
0.132	0.014955	0.002137	0.029156	-0.007601	0.011896	-0.078636	0.038593	0.003747
0.1325	0.017059	0.003174	0.041784	-0.00902	0.007658	-0.076062	0.02757	0.001743
0.133	0.01795	0.00195	0.044503	-0.005088	0.001159	-0.047342	0.017403	0.002235
0.1335	0.01782	-0.000585	0.036818	-0.001505	-0.003	0.015075	0.014426	0.004739
0.134	0.016696	-0.002637	0.02656	-0.001402	-0.003296	0.089333	0.016959	0.007066
0.1345	0.015449	-0.004301	0.019994	-0.002526	-0.002777	0.1336	0.018572	0.008196
0.135	0.015517	-0.005669	0.015662	-0.00414	-0.003611	0.123263	0.014606	0.008619
0.1355	0.015387	-0.006279	0.009024	-0.007202	-0.005776	0.076312	0.005717	0.00951
0.136	0.012987	-0.006452	0.000127	-0.009905	-0.00901	0.032931	-0.002965	0.009684
0.1365	0.010165	-0.00534	-0.006361	-0.009365	-0.012611	0.011616	-0.006724	0.006627
0.137	0.009084	-0.002222	-0.007797	-0.004344	-0.01602	-0.001104	-0.007473	0.002678
0.1375	0.008386	0.001775	-0.004911	0.001655	-0.01926	-0.019035	-0.010526	0.00253
0.138	0.006883	0.005141	-1e-05	0.002604	-0.021324	-0.036168	-0.015776	0.005583
0.1385	0.0059	0.006613	0.000476	-0.000743	-0.021128	-0.041034	-0.018654	0.007408
0.139	0.005652	0.005937	-0.011799	-0.002582	-0.020366	-0.033164	-0.016819	0.006168
0.1395	0.004948	0.004816	-0.034047	-0.001942	-0.020772	-0.018453	-0.0122	0.00375
0.14	0.004528	0.006262	-0.04631	-0.002191	-0.020374	0.000907	-0.008866	0.002572
0.1405	0.005687	0.010424	-0.035695	-0.003268	-0.01798	0.023201	-0.008549	0.003227
0.141	0.008002	0.012404	-0.023362	-0.001464	-0.016887	0.042671	-0.008647	0.002963
0.1415	0.010684	0.007997	-0.042856	0.004095	-0.01911	0.054657	-0.006994	-0.000884
0.142	0.013751	-0.000507	-0.096623	0.01026	-0.021278	0.058749	-0.00536	-0.005789
0.1425	0.01706	-0.006929	-0.153771	0.01382	-0.020324	0.055726	-0.00581	-0.008132
0.143	0.018955	-0.007997	-0.183532	0.014416	-0.01782	0.04637	-0.00758	-0.008154
0.1435	0.01786	-0.005112	-0.177575	0.013058	-0.016097	0.033468	-0.008566	-0.007827
0.144	0.01495	-0.001763	-0.143053	0.009102	-0.014978	0.021483	-0.007904	-0.007738
0.1445	0.012595	2e-06	-0.087445	0.002426	-0.013162	0.01337	-0.006656	-0.007006
0.145	0.011121	0.001425	-0.019853	-0.00364	-0.0103	0.009221	-0.005638	-0.005491
0.1455	0.00965	0.004056	0.039025	-0.005596	-0.006569	0.008528	-0.00441	-0.004808
0.146	0.008066	0.007172	0.066795	-0.00418	-0.001721	0.010808	-0.003048	-0.006009
0.1465	0.005405	0.008804	0.066199	-0.001749	0.002938	0.012763	-0.002655	-0.006877
0.147	0.000566	0.007865	0.06715	0.000487	0.004833	0.010674	-0.003916	-0.00546
0.1475	-0.003859	0.004973	0.090232	0.000583	0.004562	0.005959	-0.005176	-0.004125
0.148	-0.003333	0.001836	0.118557	-0.001118	0.005236	0.00352	-0.004521	-0.004765
0.1485	0.003357	0.000606	0.12091	-0.001423	0.007128	0.006199	-0.003833	-0.005493
0.149	0.012031	0.001195	0.097581	-9.4e-05	0.00791	0.011451	-0.005232	-0.004541
0.1495	0.016456	0.000835	0.084048	0.001704	0.007324	0.013387	-0.006929	-0.002753
0.15	0.014913	-0.000963	0.103627	0.003803	0.007669	0.010357	-0.006742	-0.001817
0.1505	0.012399	-0.001624	0.131728	0.004051	0.010274	0.008044	-0.005069	-0.0018
0.151	0.015615	-0.000764	0.12401	0.000789	0.013787	0.012503	-0.003449	-0.001349
0.1515	0.025817	-0.000904	0.075512	-0.002784	0.015792	0.021997	-0.002654	0.001065
0.152	0.03809	-0.002684	0.029108	-0.003509	0.015558	0.028168	-0.002467	0.005007
0.1525	0.046438	-0.004242	0.019606	-0.002702	0.014312	0.024092	-0.00302	0.007534
0.153	0.046598	-0.004074	0.03016	-0.001229	0.01328	0.009823	-0.005248	0.008646
0.1535	0.03877	-0.00188	0.017655	0.000779	0.013469	-0.006752	-0.008415	0.011131
0.154	0.029183	0.000587	-0.027435	0.001011	0.014573	-0.016729	-0.009683	0.013576
0.1545	0.023899	0.000853	-0.065742	-0.000859	0.014024	-0.021332	-0.008627	0.012404
0.155	0.021682	-0.001175	-0.062024	-0.002784	0.010978	-0.02939	-0.00823	0.008699
0.1555	0.015728	-0.004102	-0.031665	-0.003752	0.007967	-0.042005	-0.010322	0.006808
0.156	0.001816	-0.005703	-0.013862	-0.003474	0.007067	-0.048006	-0.013422	0.007188
0.1565	-0.017983	-0.003951	-0.019164	-0.001539	0.007414	-0.038017	-0.015616	0.006339
0.157	-0.038567	-0.001069	-0.0284	0.002232	0.006619	-0.016272	-0.01709	0.003792
0.1575	-0.052072	-0.001018	-0.028217	0.006172	0.00404	0.006745	-0.018551	0.002226
0.158	-0.04694	-0.003614	-0.022848	0.007221	0.00142	0.025597	-0.019211	0.002913
0.1585	-0.021198	-0.005822	-0.018911	0.005005	0.000874	0.038538	-0.017419	0.004613
0.159	0.001514	-0.00558	-0.016954	0.002765	0.002804	0.042586	-0.012628	0.005135
0.1595	-0.011242	-0.002918	-0.015119	0.00164	0.004946	0.034964	-0.006816	0.003914
0.16	-0.05929	0.000434	-0.013085	-2.6e-05	0.004603	0.016007	-0.003565	0.002325
0.1605	-0.100992	0.001959	-0.012136	-0.000601	0.001604	-0.013487	-0.004875	0.002022
0.161	-0.096843	0.000583	-0.012425	0.001083	-0.001194	-0.054872	-0.009617	0.003061
0.1615	-0.052578	-0.001979	-0.012521	0.00169	-0.000728	-0.103467	-0.014174	0.003364
0.162	-0.008441	-0.003877	-0.011637	0.000876	0.001613	-0.137218	-0.013884	0.002256
0.1625	0.006473	-0.00568	-0.009873	0.0012	0.001733	-0.125525	-0.008151	0.001645
0.163	-0.004863	-0.008666	-0.007921	0.001573	-0.000468	-0.061337	-0.002632	0.002017
0.1635	-0.024993	-0.01197	-0.006753	4e-06	-0.001953	0.024786	-0.001583	0.002622
0.164	-0.041542	-0.01439	-0.006436	-0.002474	-0.00189	0.093054	-0.003089	0.003892
0.1645	-0.051295	-0.01688	-0.006391	-0.004326	-0.001303	0.119416	-0.003822	0.004764
0.165	-0.059828	-0.019196	-0.005998	-0.005198	-0.001156	0.091589	-0.002607	0.002946
0.1655	-0.073397	-0.018595	-0.004394	-0.004542	-0.002328	0.016012	-6.7e-05	-0.000267
0.166	-0.084386	-0.014114	-0.001726	-0.004402	-0.003545	-0.062251	0.002141	-0.002539
0.1665	-0.077323	-0.008208	-0.000469	-0.010259	-0.0021	-0.085553	0.003061	-0.004805
0.167	-0.052019	-0.003144	-0.001967	-0.024025	0.00057	-0.048769	0.00399	-0.008064
0.1675	-0.026172	0.002683	-0.003809	-0.04135	0.000182	-0.007632	0.008065	-0.010799
0.168	-0.014014	0.012519	-0.00395	-0.055201	-0.002784	-0.008439	0.01704	-0.01064
0.1685	-0.012857	0.025072	-0.003093	-0.061176	-0.003546	-0.037323	0.027976	-0.007964
0.169	-0.012434	0.032272	-0.003832	-0.060461	-0.001361	-0.052208	0.035245	-0.005991
0.1695	-0.007813	0.027339	-0.008344	-0.05548	-0.000745	-0.039728	0.035476	-0.006071
0.17	0.000467	0.014945	-0.013693	-0.044877	-0.00306	-0.020307	0.029698	-0.007496
0.1705	0.010529	0.00638	-0.014336	-0.025215	-0.005332	-0.01486	0.021763	-0.009371
0.171	0.020904	0.005939	-0.009163	0.000511	-0.006423	-0.027999	0.014392	-0.011223
0.1715	0.029842	0.008133	-0.001398	0.023204	-0.006185	-0.05476	0.007578	-0.013175
0.172	0.034959	0.007171	0.004717	0.039647	-0.004247	-0.08306	0.00253	-0.014072
0.1725	0.036801	0.003951	0.006735	0.051508	-0.002517	-0.090372	0.002802	-0.013539
0.173	0.038141	0.00187	0.005407	0.058219	-0.002611	-0.059353	0.008444	-0.012886
0.1735	0.038994	0.001412	0.003119	0.059242	-0.003712	-0.001837	0.014027	-0.011512
0.174	0.038092	0.00161	0.002204	0.0535	-0.00553	0.047368	0.014946	-0.009148
0.1745	0.036154	0.002383	0.003588	0.038948	-0.008279	0.064159	0.013121	-0.007616
0.175	0.033419	0.003463	0.006019	0.019528	-0.010888	0.055042	0.013534	-0.006264
0.1755	0.028764	0.003118	0.007267	0.00469	-0.012384	0.043035	0.015593	-0.003407
0.176	0.023682	0.00012	0.006714	-0.002099	-0.011834	0.041816	0.013962	-0.00177
0.1765	0.021038	-0.003922	0.006007	-0.004608	-0.008628	0.047744	0.008073	-0.003676
0.177	0.019729	-0.005577	0.005961	-0.005055	-0.005087	0.052513	0.003296	-0.005621
0.1775	0.017112	-0.002855	0.005512	-0.004205	-0.004011	0.054167	0.002739	-0.004628
0.178	0.014034	0.002755	0.00434	-0.003717	-0.004619	0.052469	0.00332	-0.003057
0.1785	0.013028	0.007568	0.002906	-0.003924	-0.004529	0.044278	6.9e-05	-0.00435
0.179	0.015079	0.008523	0.000492	-0.003151	-0.003187	0.029295	-0.007848	-0.007807
0.1795	0.019141	0.00593	-0.004327	0.001147	-0.001738	0.012222	-0.015522	-0.008944
0.18	0.022948	0.003108	-0.011565	0.009418	-0.001096	-0.003644	-0.016656	-0.005712
0.1805	0.024422	0.002132	-0.018098	0.018846	-0.001445	-0.019613	-0.010391	-0.00077
0.181	0.022402	0.002248	-0.018534	0.022335	-0.002374	-0.035529	-0.002718	0.00252
0.1815	0.016253	0.002366	-0.010959	0.00958	-0.002557	-0.04433	0.000434	0.003175
0.182	0.006252	0.00224	-0.001327	-0.021021	-0.001258	-0.036996	-0.000984	0.002971
0.1825	-0.004164	0.001546	0.003061	-0.054845	0.000629	-0.011328	-0.003447	0.00363
0.183	-0.009393	0.000829	0.003108	-0.071933	0.00223	0.025932	-0.004237	0.00471
0.1835	-0.007601	0.001849	0.00536	-0.065271	0.003006	0.063704	-0.002892	0.005125
0.184	-0.002453	0.00364	0.011679	-0.045651	0.001844	0.089107	-0.000869	0.00483
0.1845	0.002536	0.002631	0.01711	-0.025023	-0.000665	0.090526	0.000564	0.004754
0.185	0.007856	-0.001408	0.016432	-0.003085	-0.000802	0.069756	0.002138	0.0048
0.1855	0.01532	-0.005207	0.00835	0.024962	0.002743	0.044988	0.004344	0.004458
0.186	0.023767	-0.007235	-0.004164	0.055874	0.005386	0.032673	0.005177	0.00436
0.1865	0.029736	-0.007935	-0.015511	0.079225	0.003706	0.031348	0.003373	0.003781
0.187	0.031904	-0.007477	-0.021468	0.08825	0.000598	0.024836	0.000509	0.002092
0.1875	0.031166	-0.006811	-0.022962	0.084692	0.000238	0.001631	-0.002165	0.001867
0.188	0.028289	-0.006491	-0.02596	0.073835	0.003346	-0.027285	-0.004366	0.00416
0.1885	0.024467	-0.00557	-0.034823	0.058871	0.007387	-0.037005	-0.00485	0.005731
0.189	0.020023	-0.005146	-0.045874	0.040572	0.008579	-0.018083	-0.002831	0.004997
0.1895	0.013631	-0.006479	-0.051603	0.020017	0.006601	0.012355	-4.9e-05	0.004587
0.19	0.00652	-0.006562	-0.050181	0.00124	0.005719	0.031525	0.000888	0.006126
0.1905	0.00211	-0.003668	-0.04533	-0.008712	0.007605	0.03233	-0.000874	0.008502
0.191	0.0013	-0.001456	-0.033679	-0.006919	0.009115	0.022794	-0.004612	0.010077
0.1915	0.002828	-0.001808	0.000324	0.000381	0.008901	0.013355	-0.009042	0.009296
0.192	0.004803	-0.002028	0.064409	0.006071	0.008779	0.008146	-0.012356	0.005961
0.1925	0.004899	-0.000949	0.136578	0.009126	0.008988	0.005739	-0.013028	0.002163
0.193	0.001074	-0.000226	0.176971	0.006153	0.007987	0.001773	-0.011311	0.000358
0.1935	-0.008435	-0.000665	0.164206	-0.014263	0.005914	-0.009268	-0.008676	0.000639
0.194	-0.022688	-0.001822	0.112216	-0.054582	0.004223	-0.029807	-0.005493	0.001526
0.1945	-0.034902	-0.003046	0.050836	-0.094086	0.003431	-0.054604	-0.001892	0.002491
0.195	-0.037707	-0.00303	-0.002036	-0.108279	0.003316	-0.070847	-0.000764	0.003496
0.1955	-0.033021	-0.000984	-0.049052	-0.096194	0.003213	-0.068627	-0.004878	0.00464
0.196	-0.028942	0.002088	-0.094176	-0.077116	0.002587	-0.052251	-0.011037	0.005333
0.1965	-0.026161	0.004312	-0.111111	-0.062697	0.002681	-0.036124	-0.012747	0.004143
0.197	-0.018226	0.004065	-0.054242	-0.044079	0.004618	-0.030246	-0.008616	0.002636
0.1975	-0.004394	0.001694	0.07207	-0.012736	0.006366	-0.032227	-0.002979	0.003492
0.198	0.008223	-0.000877	0.183454	0.023153	0.005384	-0.033968	0.000297	0.00483
0.1985	0.014306	-0.003252	0.19879	0.051668	0.001976	-0.033037	0.00037	0.003531
0.199	0.015285	-0.005806	0.132191	0.070474	-0.00202	-0.033385	-0.001295	0.001185
0.1995	0.01457	-0.00686	0.058883	0.08041	-0.004734	-0.037006	-0.002634	0.00112
0.2	0.012876	-0.005164	0.018058	0.078238	-0.005133	-0.03979	-0.002849	0.002453
0.2005	0.009848	-0.002883	-0.002194	0.06527	-0.003936	-0.036181	-0.001773	0.002733
0.201	0.005699	-0.001831	-0.017484	0.050105	-0.002118	-0.025407	0.000239	0.002084
0.2015	0.000699	-0.000303	-0.037044	0.037021	-0.000448	-0.01176	0.00199	0.001104
0.202	-0.003898	0.002835	-0.073451	0.024321	-0.000486	0.001063	0.00298	0.000363
0.2025	-0.006933	0.005321	-0.124028	0.012226	-0.002768	0.01337	0.003763	0.001033
0.203	-0.008652	0.006112	-0.167185	0.004044	-0.005905	0.025327	0.005312	0.001977
0.2035	-0.009631	0.007763	-0.199248	0.000349	-0.008369	0.032266	0.007516	0.000358
0.204	-0.011552	0.01143	-0.242662	-0.003379	-0.009636	0.028088	0.008357	-0.002641
0.2045	-0.015355	0.01493	-0.295255	-0.011755	-0.009883	0.013967	0.007189	-0.003133
0.205	-0.018283	0.016424	-0.306375	-0.023627	-0.009372	-0.000655	0.00542	-0.001524
0.2055	-0.018207	0.016187	-0.224637	-0.032398	-0.008962	-0.007602	0.003548	-0.000879
0.206	-0.01652	0.015633	-0.039647	-0.034835	-0.009204	-0.004811	0.002252	-0.001579
0.2065	-0.01412	0.014461	0.212739	-0.034178	-0.008801	0.006736	0.003005	-0.002355
0.207	-0.010145	0.010239	0.431995	-0.031102	-0.007117	0.022831	0.004736	-0.00268
0.2075	-0.004941	0.002855	0.47496	-0.022151	-0.005986	0.035377	0.004323	-0.00231
0.208	-0.00046	-0.004753	0.292188	-0.007678	-0.006416	0.038149	0.001797	-0.001252
0.2085	0.002039	-0.009235	0.022476	0.005721	-0.006302	0.031778	0.000504	-0.000702
0.209	0.0024	-0.009478	-0.139368	0.010207	-0.003743	0.02145	0.001213	-0.001214
0.2095	0.000774	-0.008892	-0.146409	0.004911	-0.000637	0.013007	0.002272	-0.001501
0.21	-0.001663	-0.00992	-0.097832	-0.002933	0.000885	0.010646	0.003649	-0.001497
0.2105	-0.002718	-0.010191	-0.074683	-0.006677	0.002092	0.013314	0.004977	-0.002005
0.211	-0.001673	-0.009034	-0.065512	-0.005731	0.003118	0.015314	0.0049	-0.001489
0.2115	-0.000435	-0.008199	-0.039113	-0.003048	0.001601	0.013703	0.003456	0.001431
0.212	-0.000524	-0.007474	-0.006962	-0.000428	-0.001614	0.011156	0.001586	0.00539
0.2125	-0.001527	-0.006279	0.00532	0.001822	-0.003604	0.010802	0.000659	0.008284
0.213	-0.00412	-0.004431	-0.000413	0.000349	-0.003517	0.011813	0.001202	0.009071
0.2135	-0.009402	-0.001737	-0.004325	-0.010644	-0.000657	0.01108	0.001362	0.007928
0.214	-0.015166	0.0004	0.002854	-0.028639	0.00414	0.007944	0.00046	0.005491
0.2145	-0.017888	0.000574	0.015095	-0.038822	0.007297	0.004671	0.000531	0.003402
0.215	-0.016392	4.3e-05	0.023489	-0.030715	0.007414	0.002685	0.001308	0.003298
0.2155	-0.012108	0.000377	0.024255	-0.011786	0.005805	0.001214	8.3e-05	0.004124
0.216	-0.007782	-1.5e-05	0.019455	0.003551	0.004386	-0.000433	-0.002588	0.004773
0.2165	-0.004809	-0.003225	0.014913	0.009756	0.004568	-0.001394	-0.002727	0.005813
0.217	-0.002295	-0.007096	0.015226	0.010783	0.0056	-0.000756	0.001408	0.006499
0.2175	-3e-05	-0.007305	0.018887	0.011183	0.006434	0.000505	0.006147	0.005514
0.218	0.00091	-0.004091	0.019753	0.011443	0.006826	-0.00036	0.0067	0.003699
0.2185	0.000929	-0.001377	0.013929	0.010617	0.006862	-0.004224	0.003467	0.002185
0.219	0.001362	0.000156	0.00322	0.008428	0.007457	-0.007816	0.000506	0.000486
0.2195	0.001699	0.001881	-0.008445	0.005694	0.007951	-0.008412	-0.000265	-0.001342
0.22	0.001012	0.002902	-0.01829	0.0042	0.007273	-0.007667	9.6e-05	-0.002768
0.2205	0.000536	0.001634	-0.02352	0.004659	0.006404	-0.008834	0.000509	-0.004082
0.221	0.000934	-0.001601	-0.021596	0.005653	0.004743	-0.012198	0.000975	-0.004928
0.2215	0.000716	-0.003871	-0.014946	0.004682	0.001608	-0.014394	0.000943	-0.005146
0.222	-0.000286	-0.002761	-0.010647	0.000242	-0.000434	-0.012858	-0.000533	-0.005962
0.2225	-0.000513	-0.000361	-0.010694	-0.005771	-0.000122	-0.009306	-0.002891	-0.007196
0.223	7.6e-05	-0.000822	-0.009556	-0.009328	4e-05	-0.007496	-0.005076	-0.005894
0.2235	7.1e-05	-0.004297	-0.00558	-0.010083	-0.002139	-0.008346	-0.006095	-0.001462
0.224	-0.000819	-0.006272	-0.005173	-0.010841	-0.005346	-0.009276	-0.004863	0.001813
0.2245	-0.001997	-0.003856	-0.01163	-0.010904	-0.006803	-0.008639	-0.002909	0.001512
0.225	-0.002434	0.000611	-0.017989	-0.008181	-0.005658	-0.007337	-0.002836	-0.000911
0.2255	-0.001414	0.003028	-0.015915	-0.003859	-0.003711	-0.006787	-0.004461	-0.003648
0.226	-0.000697	0.002172	-0.006854	-0.001325	-0.002984	-0.007411	-0.007136	-0.004616
0.2265	-0.001378	0.000178	6.9e-05	-0.004767	-0.002713	-0.00688	-0.010481	-0.004504
0.227	-0.001291	-0.001032	-0.00227	-0.014128	-0.001781	-0.00205	-0.012425	-0.00681
0.2275	0.000653	-0.001172	-0.012858	-0.021781	-0.00185	0.005127	-0.011925	-0.010892
0.228	0.002834	8.3e-05	-0.022517	-0.02137	-0.003783	0.00901	-0.00975	-0.013425
0.2285	0.00381	0.003302	-0.020565	-0.017163	-0.005204	0.008463	-0.006099	-0.015029
0.229	0.002905	0.007529	-0.006186	-0.016599	-0.00478	0.007023	-0.002176	-0.017376
0.2295	0.000419	0.0102	0.009072	-0.017631	-0.004108	0.006114	-0.000352	-0.018777
0.23	-0.000668	0.01049	0.020968	-0.012705	-0.00354	0.004968	-0.00117	-0.017637
0.2305	0.002372	0.009342	0.045798	0.001265	-0.001691	0.00338	-0.003692	-0.0146
0.231	0.007928	0.006496	0.089977	0.020803	0.000439	0.001248	-0.005951	-0.010959
0.2315	0.013389	0.002326	0.119797	0.038977	0.000837	-0.000541	-0.004934	-0.008734
0.232	0.018391	-0.00125	0.09676	0.051384	0.000517	-0.000783	-0.000391	-0.009321
0.2325	0.021878	-0.003183	0.034481	0.057212	0.001399	0.00026	0.003567	-0.010817
0.233	0.021977	-0.002834	-0.013849	0.056227	0.003122	0.001847	0.003207	-0.010045
0.2335	0.01925	-0.000816	-0.01954	0.049314	0.004188	0.003361	-0.000571	-0.006921
0.234	0.015384	0.000437	-0.002228	0.03885	0.003879	0.004535	-0.00447	-0.003656
0.2345	0.010839	0.001183	0.006653	0.025735	0.002718	0.005391	-0.006629	-0.001362
0.235	0.005884	0.004226	0.002309	0.008129	0.001375	0.005594	-0.005873	0.0001
0.2355	0.00079	0.008711	0.005078	-0.014573	-4.2e-05	0.005265	-0.002258	0.001397
0.236	-0.005481	0.010311	0.031454	-0.040202	-0.000764	0.004593	0.000817	0.003107
0.2365	-0.013894	0.007783	0.070238	-0.065893	0.000313	0.002626	0.001136	0.004215
0.237	-0.022684	0.003794	0.087889	-0.086337	0.001963	-5e-06	0.001228	0.004145
0.2375	-0.028033	0.000754	0.063871	-0.095303	0.001255	-0.000797	0.003422	0.00519
0.238	-0.028038	-0.000136	0.015278	-0.091998	-0.002136	-0.000575	0.006418	0.00857
0.2385	-0.024989	0.000803	-0.026182	-0.081612	-0.005522	-0.002072	0.008134	0.011659
0.239	-0.021177	0.001888	-0.052293	-0.068435	-0.007027	-0.003964	0.008061	0.011968
0.2395	-0.015077	0.001876	-0.075953	-0.048909	-0.006281	-0.00332	0.006716	0.010436
0.24	-0.005406	0.000278	-0.098365	-0.016741	-0.003267	-0.001076	0.004911	0.009079
0.2405	0.005602	-0.001739	-0.097118	0.024007	0.000586	-0.000148	0.003898	0.008304
0.241	0.015242	-0.001752	-0.051946	0.060035	0.003188	-0.001061	0.004645	0.00779
0.2415	0.022481	-1.4e-05	0.019209	0.084304	0.004319	-0.002545	0.006739	0.006688
0.242	0.027241	0.000593	0.065105	0.100074	0.00494	-0.003108	0.009007	0.004718
0.2425	0.030581	-0.000576	0.061254	0.110424	0.005288	-0.001148	0.010257	0.003913
0.243	0.033348	-0.002144	0.042563	0.115555	0.00438	0.002573	0.009539	0.00495
0.2435	0.034308	-0.003204	0.038085	0.115873	0.001669	0.004445	0.00648	0.004667
0.244	0.032688	-0.002226	0.002647	0.110141	-0.000792	0.002361	0.00128	0.000734
0.2445	0.029293	6.4e-05	-0.110057	0.096881	-0.000689	-0.00256	-0.005287	-0.003962
0.245	0.02396	-0.000269	-0.221524	0.076745	0.001391	-0.007447	-0.01156	-0.005103
0.2455	0.01634	-0.003554	-0.190978	0.050494	0.00311	-0.008805	-0.014734	-0.003073
0.246	0.007925	-0.006184	-0.017048	0.020456	0.003041	-0.005379	-0.012706	-0.001348
0.2465	0.000546	-0.006444	0.141675	-0.006891	0.001679	-0.000704	-0.00754	-0.001324
0.247	-0.006127	-0.005097	0.168307	-0.026775	2.4e-05	0.000309	-0.004588	-0.001162
0.2475	-0.014232	-0.002931	0.103039	-0.043818	-0.001092	-0.002622	-0.005354	0.000497
0.248	-0.024093	-0.000753	0.039893	-0.066911	-0.0011	-0.005726	-0.005463	0.002201
0.2485	-0.032939	7.5e-05	0.009181	-0.096326	-0.00091	-0.005643	-0.00241	0.002473
0.249	-0.038393	-0.000229	-0.010002	-0.121596	-0.002313	-0.001867	0.00127	0.001679
0.2495	-0.04086	-0.0004	-0.037111	-0.132349	-0.005772	0.001549	0.002907	0.001619
0.25	-0.041701	-0.001214	-0.079222	-0.128711	-0.007861	0.000281	0.00273	0.002958
0.2505	-0.040042	-0.003074	-0.131503	-0.116716	-0.004163	-0.003098	0.002624	0.003412
0.251	-0.032872	-0.004061	-0.170245	-0.09368	0.002232	-0.003708	0.003244	0.001841
0.2515	-0.01869	-0.003449	-0.162458	-0.052133	0.004203	-0.002486	0.003412	0.000625
0.252	-0.000165	-0.002436	-0.094218	0.001534	0.002054	-0.002386	0.00273	0.001423
0.2525	0.016922	-0.001859	0.008639	0.048386	0.000847	-0.002972	0.002675	0.002745
0.253	0.028078	-0.001711	0.090114	0.075643	0.001111	-0.003392	0.004124	0.003642
0.2535	0.032573	-0.001581	0.106665	0.083901	0.000489	-0.004105	0.005784	0.004215
0.254	0.030606	-0.001774	0.066507	0.079502	-0.000955	-0.004533	0.006488	0.003443
0.2545	0.022786	-0.003273	0.019235	0.068933	-0.002324	-0.003613	0.006477	0.002812
0.255	0.01386	-0.005078	0.010879	0.057839	-0.003421	-0.001126	0.006333	0.004561
0.2555	0.009903	-0.004807	0.050526	0.050023	-0.003488	0.002307	0.00655	0.006021
0.256	0.011436	-0.002707	0.102239	0.047331	-0.002232	0.004771	0.006443	0.004869
0.2565	0.013713	-0.001711	0.111136	0.047427	-0.000813	0.004959	0.004827	0.003644
0.257	0.012336	-0.003238	0.058732	0.043108	-0.000182	0.003835	0.002084	0.003816
0.2575	0.007448	-0.004646	-0.011358	0.030134	0.000161	0.001875	-0.000783	0.003035
0.258	0.002459	-0.002799	-0.037956	0.012997	0.000334	-0.001067	-0.002612	0.000792
0.2585	-0.000213	0.002106	-0.004149	-0.002421	0.000139	-0.002522	-0.002158	-0.000492
0.259	-0.000369	0.007636	0.055428	-0.01472	0.001052	-0.000848	0.000773	-0.000172
0.2595	0.001023	0.010897	0.092082	-0.021905	0.003081	0.00128	0.005936	0.000433
0.26	0.002641	0.010571	0.073391	-0.021746	0.003376	0.002183	0.012879	0.000932
0.2605	0.003476	0.007825	-0.001603	-0.016797	0.001817	0.002771	0.020319	0.002478
0.261	0.003101	0.004904	-0.089917	-0.012691	0.001458	0.002595	0.026341	0.004721
0.2615	0.001297	0.003641	-0.124061	-0.014271	0.002721	0.001162	0.029016	0.005231
0.262	-0.001889	0.003332	-0.076345	-0.020219	0.00345	-0.000472	0.028307	0.00441
0.2625	-0.005045	0.001651	0.008148	-0.023884	0.002837	-0.001358	0.027005	0.004346
0.263	-0.00602	-0.001417	0.06554	-0.023128	0.001733	-0.000329	0.027641	0.004723
0.2635	-0.005254	-0.003745	0.076387	-0.02075	0.00064	0.002697	0.029251	0.004699
0.264	-0.005236	-0.004247	0.056287	-0.018005	-0.00106	0.004407	0.027555	0.004154
0.2645	-0.00613	-0.00325	0.019668	-0.015021	-0.003209	0.002353	0.016414	0.00334
0.265	-0.006363	-0.001972	-0.021599	-0.012335	-0.004122	-0.001106	-0.007311	0.0027
0.2655	-0.005679	-0.002053	-0.051496	-0.009393	-0.003279	-0.001847	-0.035212	0.002548
0.266	-0.004694	-0.002523	-0.062207	-0.006723	-0.001982	0.001643	-0.04689	0.002638
0.2665	-0.003905	-0.00098	-0.059483	-0.007212	-0.001155	0.006001	-0.026496	0.002209
0.267	-0.003751	0.001441	-0.051673	-0.009988	-0.000753	0.006609	0.015235	0.002106
0.2675	-0.004133	0.002226	-0.043087	-0.011108	4.5e-05	0.004676	0.04507	0.002578
0.268	-0.004347	0.00112	-0.035089	-0.010557	0.001591	0.005154	0.04243	0.000997
0.2685	-0.004678	-0.000916	-0.027282	-0.010811	0.001796	0.008467	0.018822	-0.002003
0.269	-0.006345	-0.001867	-0.019084	-0.014146	-0.001089	0.010273	-0.001495	-0.001978
0.2695	-0.008853	-0.000464	-0.011166	-0.020928	-0.004357	0.007598	-0.007605	0.001228
0.27	-0.009877	0.001316	-0.005253	-0.026282	-0.004821	0.00171	-0.006807	0.003478
0.2705	-0.008292	0.001731	-0.003329	-0.024551	-0.004149	-0.004022	-0.010071	0.002546
0.271	-0.005447	0.001729	-0.004854	-0.017303	-0.003921	-0.007399	-0.018454	-0.000906
0.2715	-0.003554	0.001575	-0.005516	-0.011668	-0.002328	-0.008219	-0.026761	-0.004421
0.272	-0.003795	-0.000276	-0.003767	-0.011587	0.000674	-0.007	-0.032077	-0.005684
0.2725	-0.00554	-0.003629	-0.004238	-0.0144	0.002739	-0.004325	-0.031484	-0.005732
0.273	-0.007199	-0.005426	-0.009382	-0.015229	0.002224	-0.001027	-0.022463	-0.005977
0.2735	-0.007185	-0.003692	-0.015044	-0.012172	0.000179	0.002129	-0.011517	-0.006079
0.274	-0.005006	-0.000268	-0.016303	-0.006987	0.000191	0.004498	-0.01038	-0.006784
0.2745	-0.003236	0.001657	-0.010581	-0.001636	0.002964	0.006124	-0.019908	-0.007606
0.275	-0.004121	0.001423	0.003144	0.004025	0.004814	0.007768	-0.026094	-0.006995
0.2755	-0.004586	0.000669	0.022615	0.011608	0.003743	0.009547	-0.017928	-0.006266
0.276	-0.001134	0.00017	0.041327	0.022119	0.001806	0.011478	-0.00211	-0.006289
0.2765	0.003958	-0.000205	0.05182	0.032227	0.001425	0.013124	0.013219	-0.005883
0.277	0.005814	-0.0002	0.050273	0.034533	0.002504	0.013057	0.036682	-0.00556
0.2775	0.003277	-8.8e-05	0.038177	0.026143	0.003194	0.01105	0.070329	-0.006356
0.278	0.000238	-0.000752	0.01952	0.013294	0.002423	0.00703	0.078688	-0.006418
0.2785	7.4e-05	-0.001593	-0.001574	0.002743	0.001612	0.000617	0.019633	-0.003517
0.279	0.001495	7.9e-05	-0.019239	-0.004476	0.002908	-0.005855	-0.085771	0.000837
0.2795	0.001824	0.004751	-0.027029	-0.007665	0.005155	-0.009866	-0.156762	0.003818
0.28	0.001379	0.007891	-0.02291	-0.005374	0.005531	-0.012012	-0.149713	0.004534
0.2805	0.003218	0.005758	-0.009132	0.00094	0.004495	-0.013322	-0.111635	0.002884
0.281	0.007835	0.000933	0.013242	0.009767	0.003674	-0.013497	-0.111032	0.000226
0.2815	0.011094	-0.001578	0.043992	0.020265	0.003005	-0.012624	-0.153927	-0.000898
0.282	0.010474	-0.00103	0.073577	0.028616	0.002277	-0.011935	-0.195586	-0.000281
0.2825	0.008379	-0.000646	0.080674	0.030385	0.001199	-0.011431	-0.203866	0.000486
0.283	0.006978	-0.001752	0.053015	0.026036	-0.000279	-0.009105	-0.180022	0.000742
0.2835	0.004835	-0.0023	0.007886	0.019159	-0.001217	-0.004341	-0.126022	0.000648
0.284	0.000895	-0.001496	-0.022383	0.0112	-0.001018	0.001167	-0.021746	0.000431
0.2845	-0.002978	-0.001156	-0.023858	0.003103	-0.000419	0.005557	0.137812	-0.000105
0.285	-0.004928	-0.001718	-0.009445	-0.002779	-0.000322	0.008179	0.288257	-0.001822
0.2855	-0.004818	-0.001327	0.00199	-0.004592	-0.000563	0.00947	0.323308	-0.003606
0.286	-0.003366	0.000543	0.004163	-0.0022	-0.000906	0.009401	0.208751	-0.002907
0.2865	-0.001583	0.001964	0.000178	0.00098	-0.001667	0.007998	0.043319	-0.001177
0.287	-0.000742	0.001361	-0.00819	0.001567	-0.002514	0.006036	-0.039663	-0.001722
0.2875	-0.001171	-0.000437	-0.019917	0.001477	-0.002764	0.003705	-0.013644	-0.003342
0.288	-0.001303	-0.001866	-0.029599	0.003876	-0.002677	0.001689	0.048907	-0.002779
0.2885	-5.8e-05	-0.002403	-0.029907	0.007671	-0.002177	0.001279	0.094946	-0.001114
0.289	0.00147	-0.001828	-0.019753	0.009587	-0.001163	0.001253	0.131737	-0.001837
0.2895	0.002068	-0.000267	-0.00737	0.009003	-0.001159	-0.000733	0.167505	-0.004739
0.29	0.001924	0.001527	-0.001273	0.006976	-0.002481	-0.003586	0.179113	-0.007763
0.2905	0.00168	0.002483	-0.000858	0.004688	-0.003664	-0.003732	0.153728	-0.0098
0.291	0.001311	0.001984	-0.000619	0.003673	-0.003874	-0.000176	0.130163	-0.009336
0.2915	0.000647	0.001293	0.000966	0.001982	-0.002801	0.00389	0.163963	-0.007
0.292	0.000424	0.001248	0.002121	-0.003679	-0.00168	0.004811	0.238191	-0.005249
0.2925	0.001018	0.000438	0.002228	-0.010648	-0.002218	0.002663	0.239533	-0.003157
0.293	0.00128	-0.000943	0.001352	-0.013857	-0.003078	0.000848	0.07298	0.000174
0.2935	0.000982	-0.000758	2.8e-05	-0.014288	-0.001992	0.001217	-0.205854	0.001696
0.294	0.001476	0.000637	-4e-05	-0.014835	-0.000104	0.001701	-0.425988	0.000765
0.2945	0.002415	0.001246	0.001601	-0.012958	-0.000421	0.000633	-0.474056	0.000394
0.295	0.002681	0.000931	0.003215	-0.008043	-0.002802	7.5e-05	-0.390338	0.000894
0.2955	0.002998	-0.000174	0.003268	-0.005165	-0.004594	0.001513	-0.2899	0.000658
0.296	0.003574	-0.002117	0.001417	-0.005568	-0.004982	0.001789	-0.236237	0.000168
0.2965	0.003839	-0.002809	-0.001177	-0.006287	-0.004721	-0.002022	-0.214651	0.000504
0.297	0.004681	-0.000909	-0.001835	-0.00635	-0.003494	-0.007415	-0.18427	0.001326
0.2975	0.006568	0.001524	0.000167	-0.005966	-0.000671	-0.010291	-0.112918	0.001526
0.298	0.00765	0.0023	0.002394	-0.004809	0.002052	-0.010493	0.017365	0.000201
0.2985	0.006897	0.001655	0.00378	-0.002324	0.00243	-0.010434	0.204124	-0.002348
0.299	0.006166	0.001143	0.005698	0.00077	0.001007	-0.010209	0.414539	-0.004386
0.2995	0.006151	0.001288	0.008288	0.002753	-0.000614	-0.007453	0.574617	-0.004695
0.3	0.005557	0.00136	0.010233	0.00412	-0.001594	-0.001897	0.583058	-0.004173
0.3005	0.004602	0.001144	0.011256	0.004941	-0.000914	0.00319	0.390707	-0.003925
0.301	0.002844	0.000718	0.012873	0.002679	0.001391	0.004699	0.087453	-0.003387
0.3015	-0.001048	0.000346	0.016095	-0.002323	0.003312	0.002143	-0.141285	-0.002488
0.302	-0.004626	0.001047	0.018533	-0.006592	0.003168	-0.003106	-0.178935	-0.002408
0.3025	-0.004953	0.002355	0.017549	-0.008622	0.00096	-0.007939	-0.074707	-0.002382
0.303	-0.003405	0.002537	0.014374	-0.008361	-0.001718	-0.009642	0.033334	-0.000254
0.3035	-0.002209	0.001425	0.010907	-0.005763	-0.002937	-0.009231	0.062277	0.0029
0.304	-0.001816	-6.2e-05	0.007203	-0.002511	-0.002157	-0.009286	0.032963	0.002875
0.3045	-0.002057	-0.000716	0.003031	-0.000282	0.000105	-0.010349	0.002873	-0.001219
0.305	-0.002505	0.000618	-0.001877	0.000843	0.00257	-0.010926	-0.004385	-0.003855
0.3055	-0.002754	0.003415	-0.006888	0.000542	0.003334	-0.009116	-0.001524	6.5e-05
0.306	-0.002628	0.005495	-0.010431	-0.000462	0.001815	-0.004534	-0.005921	0.00796
0.3065	-0.002081	0.005718	-0.012985	-0.000126	-0.000242	0.000255	-0.021549	0.013343
0.307	-0.00138	0.005728	-0.016027	0.001444	-0.00075	0.001181	-0.039264	0.013205
0.3075	-0.001288	0.007205	-0.018716	0.00246	0.000986	-0.001841	-0.046365	0.008482
0.308	-0.002666	0.008142	-0.020344	0.002883	0.003423	-0.003821	-0.041678	0.002517
0.3085	-0.004957	0.005547	-0.022697	0.003476	0.003604	-0.001988	-0.040883	-0.001381
0.309	-0.00577	0.000277	-0.02633	0.003368	0.001167	0.001383	-0.058139	-0.002923
0.3095	-0.003675	-0.004734	-0.029322	0.002996	-0.001555	0.003087	-0.083168	-0.002361
0.31	-0.000264	-0.007322	-0.030711	0.004394	-0.002859	0.002411	-0.088545	-0.000494
0.3105	0.002286	-0.007138	-0.030822	0.005811	-0.001979	0.002064	-0.065103	-4.6e-05
0.311	0.003267	-0.00658	-0.029083	0.003889	0.000229	0.004112	-0.039326	-5.3e-05
0.3115	0.002451	-0.007203	-0.024588	0.00043	0.001442	0.006675	-0.044734	0.003734
0.312	0.000655	-0.007537	-0.018831	-0.000514	0.000704	0.007695	-0.083929	0.010772
0.3125	-0.000401	-0.006202	-0.013887	0.000371	-0.000551	0.008027	-0.133173	0.016036
0.313	-0.001058	-0.00332	-0.008625	0.000305	-0.000266	0.008817	-0.173155	0.017739
0.3135	-0.002301	-8.4e-05	-0.002011	-0.000893	0.001178	0.008792	-0.192135	0.017674
0.314	-0.00273	0.002071	0.003659	-0.003295	0.001066	0.006458	-0.170027	0.015793
0.3145	-0.002008	0.003079	0.006611	-0.006992	-0.001281	0.003275	-0.093648	0.012398
0.315	-0.002447	0.004543	0.008271	-0.011712	-0.002597	0.001362	0.00808	0.010029
0.3155	-0.004787	0.007185	0.010571	-0.018899	-0.000895	0.000246	0.071922	0.008721
0.316	-0.008281	0.008319	0.01287	-0.028696	0.000243	-0.000853	0.060134	0.007596
0.3165	-0.012776	0.005484	0.013178	-0.03879	-0.001608	-0.000845	0.001094	0.008496
0.317	-0.017083	0.001135	0.01234	-0.046333	-0.003231	0.00046	-0.046415	0.011393
0.3175	-0.019003	-0.000975	0.013399	-0.047068	-0.002374	0.001197	-0.057564	0.012359
0.318	-0.01736	-0.001237	0.016229	-0.038164	-0.000523	0.000904	-0.0451	0.010289
0.3185	-0.012071	-0.001458	0.017696	-0.023277	0.000797	0.001729	-0.013834	0.008951
0.319	-0.004098	-0.000442	0.016392	-0.008501	0.001415	0.004803	0.04313	0.010021
0.3195	0.003349	0.002508	0.01407	0.005067	0.001485	0.008135	0.098828	0.010454
0.32	0.006527	0.004526	0.012982	0.018522	0.000742	0.009547	0.096041	0.006899
0.3205	0.00587	0.002978	0.012654	0.030896	-0.000829	0.008908	0.024559	4.6e-05
0.321	0.005717	-0.001445	0.011615	0.041004	-0.001877	0.006454	-0.04584	-0.005759
0.3215	0.00873	-0.004844	0.010855	0.047774	-0.00156	0.002189	-0.047839	-0.009326
0.322	0.01332	-0.004299	0.0116	0.049793	-0.001627	-0.00232	-0.006996	-0.013827
0.3225	0.015944	-0.002312	0.012503	0.046825	-0.00298	-0.004602	-0.006603	-0.018192
0.323	0.014954	-0.003079	0.011325	0.0419	-0.003483	-0.004584	-0.072077	-0.01732
0.3235	0.012843	-0.00613	0.007672	0.039528	-0.002056	-0.004278	-0.135016	-0.012482
0.324	0.012625	-0.006889	0.003581	0.040033	-0.000635	-0.004686	-0.124166	-0.010384
0.3245	0.012771	-0.003724	0.000349	0.039835	-0.001124	-0.005494	-0.058628	-0.011715
0.325	0.010442	-0.000664	-0.003744	0.035717	-0.002433	-0.005775	-0.021291	-0.01185
0.3255	0.006441	-0.000638	-0.009677	0.026159	-0.001735	-0.004667	-0.057094	-0.010468
0.326	0.002698	-0.002588	-0.014435	0.01258	0.001066	-0.002409	-0.129421	-0.010138
0.3265	-0.000232	-0.005197	-0.014305	-0.000321	0.00315	-7e-05	-0.169825	-0.009901
0.327	-0.002034	-0.006743	-0.009651	-0.008127	0.002634	0.001286	-0.142834	-0.007531
0.3275	-0.002629	-0.005648	-0.004598	-0.011259	0.000377	0.002027	-0.0604	-0.005676
0.328	-0.002804	-0.003993	-0.002717	-0.013895	-0.000795	0.003346	0.041577	-0.009106
0.3285	-0.003952	-0.00494	-0.004103	-0.017738	0.000822	0.004119	0.121179	-0.014587
0.329	-0.006616	-0.007077	-0.00643	-0.021565	0.003715	0.002909	0.142773	-0.013697
0.3295	-0.009539	-0.006222	-0.007565	-0.02668	0.005084	0.001657	0.116364	-0.006445
0.33	-0.012238	-0.002328	-0.00669	-0.036219	0.004043	0.002838	0.120819	-0.000553
0.3305	-0.015969	0.00056	-0.004241	-0.048707	0.002933	0.005664	0.220657	0.000388
0.331	-0.020176	0.000547	-0.000964	-0.058702	0.004464	0.006929	0.351671	-0.000886
0.3315	-0.023029	-0.000633	0.002885	-0.063789	0.007023	0.005485	0.369829	-0.001573
0.332	-0.02418	-0.001611	0.006976	-0.063949	0.006677	0.004031	0.235635	-0.001285
0.3325	-0.022582	-0.002969	0.010275	-0.057718	0.004018	0.004322	0.072063	-0.001339
0.333	-0.016757	-0.004774	0.010928	-0.044454	0.003275	0.004569	0.008055	-0.002721
0.3335	-0.008318	-0.00615	0.005674	-0.025686	0.005207	0.0024	0.037753	-0.003204
0.334	-0.000634	-0.00556	-0.00817	-0.004548	0.00621	-0.002008	0.074438	-0.000682
0.3345	0.004354	-0.001497	-0.023997	0.015952	0.004802	-0.005706	0.076317	0.003259
0.335	0.007454	0.004028	-0.025009	0.034788	0.003798	-0.006724	0.068702	0.006256
0.3355	0.011093	0.007011	-0.005532	0.050538	0.004348	-0.00602	0.082524	0.007003
0.336	0.015373	0.006638	0.013838	0.060666	0.0043	-0.004955	0.113415	0.005344
0.3365	0.017827	0.00454	0.008246	0.063394	0.003092	-0.0033	0.132813	0.002729
0.337	0.017516	0.001093	-0.020234	0.059024	0.002448	-4.2e-05	0.120987	0.000571
0.3375	0.01637	-0.003421	-0.048027	0.050422	0.003549	0.004072	0.083903	-0.001186
0.338	0.016125	-0.006364	-0.060299	0.04215	0.005424	0.006547	0.040598	-0.00227
0.3385	0.015889	-0.005467	-0.0612	0.038565	0.005451	0.006518	0.002736	-0.002098
0.339	0.014679	-0.001279	-0.060189	0.038931	0.003373	0.005902	-0.029983	-0.002601
0.3395	0.013351	0.003008	-0.0607	0.038036	0.001565	0.006071	-0.060332	-0.004992
0.34	0.012158	0.003782	-0.059941	0.033227	0.000189	0.005197	-0.082601	-0.005589
0.3405	0.009803	0.001501	-0.052763	0.024262	-0.001189	0.001406	-0.082107	-0.001519
0.341	0.005151	-0.000541	-0.035401	0.010339	-0.000726	-0.003642	-0.055722	0.003614
0.3415	-0.001509	-0.000589	-0.009664	-0.007659	0.001585	-0.007142	-0.03361	0.004721
0.342	-0.007564	0.001352	0.01817	-0.024268	0.003267	-0.007949	-0.053048	0.002148
0.3425	-0.009371	0.004079	0.046892	-0.032844	0.003357	-0.005532	-0.097284	-0.000238
0.343	-0.006594	0.005809	0.082118	-0.032216	0.002079	2.8e-05	-0.098055	4.9e-05
0.3435	-0.002764	0.00608	0.12056	-0.026373	-0.000252	0.005758	-0.026074	0.002864
0.344	-0.000594	0.006987	0.141229	-0.020451	-0.002388	0.007497	0.057747	0.005199
0.3445	-0.000123	0.009964	0.12654	-0.017427	-0.003256	0.005415	0.074214	0.005256
0.345	-0.000202	0.012398	0.084799	-0.016036	-0.003009	0.003224	0.016616	0.00517
0.3455	0.000435	0.011919	0.038297	-0.013993	-0.002717	0.001656	-0.06391	0.005486
0.346	0.001649	0.010334	0.001141	-0.011707	-0.003755	-0.000994	-0.129744	0.00471
0.3465	0.002108	0.009939	-0.022208	-0.010528	-0.005849	-0.00431	-0.170441	0.004181
0.347	0.00139	0.009704	-0.032351	-0.010026	-0.006934	-0.006596	-0.172353	0.005462
0.3475	0.000154	0.00668	-0.035197	-0.009429	-0.006107	-0.005848	-0.122894	0.005923
0.348	-0.000651	-0.000272	-0.036837	-0.008604	-0.004421	-0.001585	-0.040241	0.002916
0.3485	-0.00046	-0.00801	-0.036093	-0.006658	-0.003227	0.00245	0.029238	-0.000667
0.349	0.000542	-0.011458	-0.026637	-0.003925	-0.002823	0.002974	0.049677	-0.001112
0.3495	0.001766	-0.009568	-0.006224	-0.002282	-0.002587	0.000769	0.024143	0.000736
0.35	0.002573	-0.005681	0.020567	-0.001546	-0.002991	-0.00208	-0.017843	0.00309
0.3505	0.002762	-0.00177	0.047991	-0.000721	-0.004445	-0.003309	-0.048385	0.005301
0.351	0.002495	0.002637	0.071251	-0.00053	-0.004977	-0.00181	-0.049776	0.006139
0.3515	0.00219	0.005646	0.082931	-0.001569	-0.004108	0.000466	-0.016286	0.004551
0.352	0.002019	0.003435	0.075022	-0.003191	-0.004133	0.001417	0.034447	0.001355
0.3525	0.000854	-0.00285	0.048551	-0.004381	-0.005367	0.001517	0.066956	-0.000465
0.353	-0.001664	-0.007175	0.017141	-0.004315	-0.006483	0.001295	0.062001	0.001124
0.3535	-0.00372	-0.006093	-0.003687	-0.003559	-0.008188	0.000283	0.035274	0.003657
0.354	-0.004339	-0.000555	-0.010597	-0.004608	-0.011731	-0.000931	0.012247	0.003358
0.3545	-0.00439	0.006645	-0.012313	-0.008472	-0.01455	-0.00165	-0.00211	0.000616
0.355	-0.00491	0.012332	-0.015967	-0.011621	-0.012778	-0.002312	-0.017163	-0.001341
0.3555	-0.006172	0.015027	-0.020497	-0.010618	-0.008243	-0.002886	-0.033239	-0.000958
0.356	-0.007297	0.01513	-0.022774	-0.007264	-0.006023	-0.00261	-0.041472	0.000637
0.3565	-0.007432	0.013997	-0.021483	-0.005151	-0.006998	-0.001801	-0.040171	0.001479
0.357	-0.006868	0.013831	-0.014875	-0.004487	-0.008118	-0.002513	-0.036805	0.001545
0.3575	-0.006099	0.014997	-0.000521	-0.003185	-0.006805	-0.005353	-0.037405	0.002111
0.358	-0.004786	0.013861	0.018502	-0.000787	-0.003748	-0.007209	-0.040965	0.001908
0.3585	-0.002351	0.006894	0.028235	0.001974	-0.001977	-0.006511	-0.043556	-0.00057
0.359	0.000595	-0.003785	0.014121	0.004946	-0.002241	-0.006274	-0.045451	-0.003184
0.3595	0.002101	-0.014129	-0.021568	0.006875	-0.002884	-0.00794	-0.04983	-0.004046
0.36	0.000622	-0.02585	-0.059716	0.005703	-0.003376	-0.008194	-0.05236	-0.00381
0.3605	-0.00268	-0.041115	-0.081472	0.002724	-0.003614	-0.004148	-0.038003	-0.002386
0.361	-0.004491	-0.052663	-0.084289	0.002243	-0.00319	0.002303	0.001643	0.000144
0.3615	-0.003034	-0.050307	-0.084786	0.005304	-0.002405	0.006749	0.050341	0.000769
0.362	9.8e-05	-0.034487	-0.105637	0.00973	-0.002066	0.006761	0.07911	-0.001551
0.3625	0.001199	-0.015343	-0.153453	0.011944	-0.00196	0.003468	0.075409	-0.003458
0.363	-0.003174	-0.001319	-0.204991	0.002305	-1.7e-05	2e-05	0.052578	-0.00353
0.3635	-0.013321	0.006197	-0.216682	-0.025635	0.003649	-0.001379	0.031413	-0.002778
0.364	-0.025103	0.009531	-0.153883	-0.060966	0.005841	-0.001234	0.018426	-0.002122
0.3645	-0.032784	0.010696	-0.021977	-0.086438	0.005773	-0.000873	0.006168	-0.003358
0.365	-0.033808	0.011195	0.128256	-0.095294	0.004783	0.000584	-0.009576	-0.006605
0.3655	-0.029987	0.012244	0.23627	-0.08995	0.003338	0.003766	-0.022673	-0.008772
0.366	-0.023815	0.014039	0.273035	-0.073542	0.002513	0.005963	-0.027013	-0.007209
0.3665	-0.015875	0.016468	0.243194	-0.047658	0.003844	0.005759	-0.024478	-0.002569
0.367	-0.007126	0.018567	0.168892	-0.014783	0.006625	0.005077	-0.019961	0.002689
0.3675	0.000933	0.018428	0.094218	0.019643	0.008773	0.004399	-0.01655	0.006183
0.368	0.008974	0.016054	0.072634	0.048761	0.010298	0.002519	-0.015619	0.006126
0.3685	0.017837	0.012527	0.104226	0.070492	0.012339	-0.000585	-0.015502	0.003044
0.369	0.025843	0.007713	0.112903	0.086347	0.013799	-0.0032	-0.013904	-0.000714
0.3695	0.030734	0.002227	0.035745	0.093345	0.012999	-0.003285	-0.011977	-0.00341
0.37	0.031705	-0.002078	-0.086895	0.087763	0.010623	-0.001622	-0.011188	-0.004617
0.3705	0.029262	-0.00478	-0.159959	0.073023	0.007879	-0.000734	-0.01062	-0.00497
0.371	0.025622	-0.006496	-0.157004	0.057642	0.00475	-0.000908	-0.009048	-0.00495
0.3715	0.024195	-0.007186	-0.142858	0.051253	0.001981	-0.001033	-0.006281	-0.004074
0.372	0.025935	-0.007554	-0.177787	0.058871	0.00093	-0.000704	-0.003561	-0.001123
0.3725	0.027745	-0.007374	-0.246598	0.07116	0.001454	0.000353	-0.002489	0.003695
0.373	0.026034	-0.003651	-0.28714	0.069729	0.002678	0.001712	-0.003101	0.006473
0.3735	0.019611	0.003433	-0.250278	0.048841	0.003375	0.001901	-0.003684	0.004418
0.374	0.00991	0.008659	-0.117947	0.020378	0.002149	0.001287	-0.002515	0.000172
0.3745	0.000741	0.008636	0.100752	-0.001995	-0.00038	0.001215	0.000111	-0.002672
0.375	-0.004655	0.005653	0.346974	-0.013373	-0.00158	0.000512	0.002258	-0.00388
0.3755	-0.006454	0.00429	0.500883	-0.016429	0.000701	-0.001231	0.002638	-0.004743
0.376	-0.006466	0.005353	0.461483	-0.015231	0.005316	-0.001849	0.00202	-0.004759
0.3765	-0.006009	0.005231	0.263776	-0.012838	0.00802	-0.001483	0.001599	-0.003574
0.377	-0.005497	0.002268	0.064261	-0.012225	0.00696	-0.002164	0.001348	-0.003467
0.3775	-0.004436	-0.000646	-0.022519	-0.014377	0.00483	-0.003262	0.002039	-0.004959
0.378	-0.003173	-0.001882	-0.02719	-0.017333	0.00427	-0.003182	0.005192	-0.004432
0.3785	-0.003067	-0.003022	-0.038712	-0.018996	0.005143	-0.00305	0.009687	-0.000461
0.379	-0.003281	-0.004524	-0.074753	-0.019378	0.006186	-0.004255	0.012796	0.003099
0.3795	-0.002311	-0.006088	-0.089146	-0.018147	0.007464	-0.005347	0.013491	0.003583
0.38	-0.001283	-0.007637	-0.063109	-0.015357	0.009841	-0.003827	0.01227	0.002712
0.3805	-0.000772	-0.007999	-0.027401	-0.013973	0.011566	0.000289	0.010533	0.002546
0.381	2e-05	-0.007258	-0.011665	-0.014182	0.009938	0.003182	0.00936	0.003548
0.3815	0.000802	-0.0071	-0.017646	-0.013002	0.006826	0.002508	0.007419	0.004713
0.382	0.001475	-0.007183	-0.035491	-0.011588	0.006127	0.001301	0.003898	0.004373
0.3825	0.001866	-0.005408	-0.054804	-0.012895	0.007047	0.002267	0.001466	0.003261
0.383	0.000785	-0.002058	-0.061879	-0.015485	0.005888	0.003847	0.002171	0.003609
0.3835	-0.00126	0.000845	-0.046826	-0.016519	0.00295	0.003756	0.004745	0.004532
0.384	-0.002123	0.003507	-0.013675	-0.015373	0.00222	0.001854	0.006933	0.004129
0.3845	-0.002115	0.006057	0.023914	-0.01206	0.003722	-0.000458	0.00773	0.004191
0.385	-0.002789	0.006568	0.050441	-0.008824	0.003224	-0.001155	0.008401	0.005479
0.3855	-0.00304	0.004642	0.049613	-0.009392	0.000432	0.000683	0.009785	0.004802
0.386	-0.001866	0.001399	0.012034	-0.011708	-0.001018	0.002571	0.010128	0.00239
0.3865	-0.000405	-0.002224	-0.050768	-0.010857	0.000235	0.000971	0.009262	0.001209
0.387	6.3e-05	-0.004928	-0.111033	-0.008246	0.00213	-0.00344	0.009622	0.001117
0.3875	-0.001221	-0.005891	-0.149323	-0.007649	0.001366	-0.006271	0.011217	0.001772
0.388	-0.003139	-0.004932	-0.164892	-0.008529	-0.002594	-0.005552	0.011654	0.002445
0.3885	-0.003523	-0.00237	-0.160247	-0.009609	-0.005644	-0.003358	0.0112	0.000785
0.389	-0.00257	-8.1e-05	-0.130744	-0.010714	-0.004532	-0.001618	0.012819	-0.002038
0.3895	-0.002204	9.9e-05	-0.075548	-0.010307	-0.002057	-0.000463	0.017407	-0.002867
0.39	-0.003134	-0.000946	-0.006817	-0.008473	-0.002225	0.000436	0.022881	-0.002293
0.3905	-0.004469	-0.001059	0.05856	-0.00833	-0.00418	0.001074	0.027314	-0.002736
0.391	-0.005869	3.1e-05	0.107348	-0.010979	-0.005573	0.000984	0.030491	-0.004363
0.3915	-0.008341	0.001413	0.128018	-0.014819	-0.005899	-0.000308	0.033102	-0.005348
0.392	-0.011589	0.00272	0.115179	-0.019058	-0.005368	-0.002331	0.035741	-0.004259
0.3925	-0.013066	0.003431	0.080478	-0.023262	-0.004542	-0.003077	0.037724	-0.001899
0.393	-0.011518	0.003	0.04412	-0.024885	-0.004231	-0.001313	0.036308	-0.000689
0.3935	-0.009309	0.001999	0.012585	-0.02135	-0.005285	0.001194	0.030133	-0.001608
0.394	-0.00952	0.001291	-0.019501	-0.015823	-0.007453	0.002685	0.021775	-0.002922
0.3945	-0.012227	0.001043	-0.046623	-0.014722	-0.009062	0.003563	0.013849	-0.002789
0.395	-0.014762	0.001383	-0.050785	-0.017644	-0.009099	0.004093	0.006796	-0.001691
0.3955	-0.014535	0.002406	-0.023537	-0.018179	-0.007973	0.003952	0.000405	-0.001528
0.396	-0.011255	0.003982	0.023216	-0.013469	-0.006784	0.004225	-0.005122	-0.003146
0.3965	-0.006169	0.005577	0.066462	-0.004443	-0.006712	0.005725	-0.007932	-0.005047
0.397	-1.6e-05	0.005577	0.085277	0.008966	-0.008185	0.005961	-0.006679	-0.004423
0.3975	0.006493	0.003179	0.072678	0.024776	-0.010239	0.002864	-0.00498	-0.001223
0.398	0.012039	0.000565	0.042449	0.037555	-0.011185	-0.001628	-0.008948	0.00108
0.3985	0.015778	-0.000253	0.018046	0.044446	-0.009969	-0.004492	-0.019509	0.001459
0.399	0.017597	-0.000635	0.009882	0.045879	-0.007163	-0.003749	-0.030348	0.001849
0.3995	0.01724	-0.00242	0.008885	0.043933	-0.005441	-0.000149	-0.035741	0.002702
0.4	0.014997	-0.004894	0.003815	0.042607	-0.006727	0.002295	-0.038849	0.003185
0.4005	0.012985	-0.006428	-0.003802	0.043315	-0.008851	0.001797	-0.044789	0.002507
0.401	0.012903	-0.006722	-0.006785	0.043214	-0.008757	0.001022	-0.049315	0.000678
0.4015	0.012947	-0.006225	-0.005103	0.039434	-0.006562	0.001527	-0.049095	-0.001173
0.402	0.009886	-0.005232	-0.003272	0.030486	-0.004373	0.001677	-0.054022	-0.001314
0.4025	0.00425	-0.003929	-0.001504	0.016001	-0.003807	0.001171	-0.070473	0.000894
0.403	0.000159	-0.002	0.003687	-0.000214	-0.004612	0.001552	-0.079761	0.00289
0.4035	-0.000474	0.000419	0.013167	-0.010856	-0.005924	0.002162	-0.052774	0.002381
0.404	0.000419	0.001786	0.023133	-0.013881	-0.007501	0.001587	0.008589	0.000626
0.4045	0.000552	0.001147	0.030301	-0.013154	-0.007999	0.000128	0.062636	-0.000282
0.405	-0.000399	-0.000347	0.037739	-0.011028	-0.006312	-0.001428	0.074256	-3e-05
0.4055	-0.001091	-0.001058	0.052416	-0.008914	-0.004786	-0.001425	0.050987	-0.000761
0.406	-0.000647	-0.001094	0.076215	-0.00785	-0.005903	0.00083	0.019202	-0.003874
0.4065	0.00019	-0.001892	0.100451	-0.006603	-0.008051	0.002531	-0.011153	-0.006183
0.407	0.000182	-0.003618	0.111175	-0.005521	-0.008659	0.001461	-0.040344	-0.004268
0.4075	-0.000984	-0.004728	0.103013	-0.008764	-0.008095	-0.000197	-0.061059	-0.000545
0.408	-0.003143	-0.004697	0.084106	-0.019768	-0.008386	0.000242	-0.069174	0.000585
0.4085	-0.006681	-0.00415	0.058612	-0.035954	-0.009528	0.001388	-0.076399	-0.000435
0.409	-0.011169	-0.002205	0.013198	-0.050733	-0.008481	0.001119	-0.088227	-3.5e-05
0.4095	-0.015272	0.001484	-0.058912	-0.059816	-0.003867	-3.2e-05	-0.079539	0.00297
0.41	-0.018318	0.003813	-0.125877	-0.063293	0.000884	-0.001822	-0.02282	0.006073
0.4105	-0.01933	0.002628	-0.139628	-0.062927	0.00226	-0.004337	0.059152	0.006414
0.411	-0.017188	0.001015	-0.09846	-0.057832	0.001537	-0.005493	0.099529	0.004159
0.4115	-0.012345	0.002821	-0.055246	-0.044352	0.002402	-0.00413	0.059251	0.002242
0.412	-0.00565	0.006836	-0.045667	-0.021918	0.005589	-0.002478	-0.026178	0.003324
0.4125	0.002153	0.009407	-0.04588	0.003441	0.008115	-0.001973	-0.084701	0.006021
0.413	0.009085	0.009838	-0.03539	0.025294	0.007661	-0.00135	-0.076866	0.006749
0.4135	0.013162	0.009184	-0.065404	0.042027	0.006168	0.000337	-0.01785	0.005131
0.414	0.013798	0.007259	-0.206831	0.051999	0.006676	0.003245	0.049747	0.002993
0.4145	0.011558	0.004137	-0.427686	0.05339	0.007815	0.007304	0.098261	0.001765
0.415	0.008817	0.001439	-0.568493	0.050017	0.007024	0.011313	0.14039	0.002325
0.4155	0.008428	0.000357	-0.486771	0.047895	0.005925	0.013784	0.192819	0.00314
0.416	0.010273	0.000126	-0.220673	0.048196	0.006669	0.014244	0.209749	0.001644
0.4165	0.012138	-0.000644	0.04702	0.048348	0.00798	0.012679	0.114376	-0.001716
0.417	0.013083	-0.002032	0.193631	0.047268	0.007559	0.008861	-0.07021	-0.003972
0.4175	0.013204	-0.003577	0.252467	0.045274	0.005411	0.003097	-0.192178	-0.002911
0.418	0.011771	-0.005185	0.289657	0.039944	0.003986	-0.002992	-0.138835	0.000478
0.4185	0.007454	-0.006167	0.283697	0.028122	0.004736	-0.007452	0.019182	0.003526
0.419	0.000494	-0.005984	0.191713	0.011434	0.006265	-0.009958	0.1226	0.005077
0.4195	-0.005723	-0.005162	0.066806	-0.004528	0.00729	-0.011426	0.114608	0.004966
0.42	-0.007632	-0.00413	0.015154	-0.014415	0.007855	-0.01174	0.066306	0.003399
0.4205	-0.005819	-0.002879	0.052922	-0.015899	0.007646	-0.010516	0.051599	0.001456
0.421	-0.00351	-0.001538	0.091305	-0.011373	0.006592	-0.008624	0.070748	0.000221
0.4215	-0.002316	-0.000484	0.071976	-0.006605	0.005822	-0.006551	0.086469	2.6e-05
0.422	-0.001805	-0.000477	0.04085	-0.00549	0.005981	-0.004259	0.077644	0.001062
0.4225	-0.001168	-0.001086	0.062832	-0.006991	0.006441	-0.002373	0.04778	0.003171
0.423	0.000349	0.000841	0.127053	-0.008241	0.006636	-0.001119	0.010598	0.004292
0.4235	0.002565	0.006884	0.175576	-0.008196	0.00617	-0.000991	-0.021433	0.002563
0.424	0.003556	0.013879	0.185758	-0.008	0.00512	-0.002992	-0.042892	-0.000433
0.4245	0.001982	0.017986	0.179117	-0.008737	0.00409	-0.005276	-0.054911	-0.001853
0.425	-0.000611	0.017285	0.159144	-0.009484	0.002868	-0.005042	-0.061384	-0.000978
0.4255	-0.001705	0.011496	0.088619	-0.008429	0.001558	-0.004035	-0.068809	0.000928
0.426	-0.000999	0.002999	-0.03818	-0.004997	0.001356	-0.00465	-0.088551	0.002736
0.4265	0.000462	-0.003991	-0.138044	-0.001585	0.002927	-0.004489	-0.133002	0.003735
0.427	0.00175	-0.006958	-0.126104	-0.000878	0.005264	-0.001705	-0.202291	0.003489
0.4275	0.001688	-0.006613	-0.044953	-0.002234	0.005878	0.00188	-0.267757	0.002103
0.428	0.000471	-0.005133	-0.020311	-0.004863	0.003733	0.004878	-0.273377	-0.001422
0.4285	-0.000659	-0.005261	-0.092117	-0.008068	0.00108	0.006378	-0.177098	-0.006153
0.429	-0.00183	-0.008907	-0.177383	-0.009204	0.000479	0.005834	-0.002174	-0.007608
0.4295	-0.003576	-0.01335	-0.204026	-0.00833	0.001818	0.004812	0.164737	-0.005556
0.43	-0.00553	-0.013258	-0.195945	-0.009084	0.002852	0.004312	0.23839	-0.005067
0.4305	-0.007336	-0.008266	-0.205461	-0.013266	0.002171	0.003107	0.205414	-0.007812
0.431	-0.008724	-0.002943	-0.228119	-0.019833	0.000806	0.000881	0.128306	-0.009938
0.4315	-0.008894	-0.000193	-0.218199	-0.02559	0.000356	-0.000498	0.076602	-0.00884
0.432	-0.007577	0.000342	-0.155668	-0.024779	0.000559	-0.000234	0.068636	-0.006412
0.4325	-0.0055	0.000633	-0.067524	-0.016175	0.000237	0.000165	0.08025	-0.005942
0.433	-0.003399	0.003005	0.006156	-0.007239	-0.000278	0.000297	0.082584	-0.008711
0.4335	-0.001832	0.007541	0.04445	-0.00287	-3e-06	0.00093	0.062833	-0.012347
0.434	-0.000598	0.012345	0.049303	0.000437	0.001283	0.001417	0.026285	-0.01405
0.4345	0.000981	0.016203	0.045744	0.005794	0.003052	0.001672	-0.012254	-0.014063
0.435	0.002059	0.018353	0.085637	0.009983	0.00402	0.002463	-0.042128	-0.013303
0.4355	0.001318	0.017386	0.213405	0.008402	0.003333	0.002328	-0.059535	-0.011478
0.436	-0.000632	0.012144	0.390751	0.002784	0.001531	0.000202	-0.05612	-0.008257
0.4365	-0.002268	0.00406	0.486707	-0.001056	0.000143	-0.00109	-0.019833	-0.004279
0.437	-0.003153	-0.002947	0.41019	-0.000801	-0.000444	0.000612	0.041583	-0.00094
0.4375	-0.003683	-0.006153	0.235015	0.000481	-0.001576	0.002816	0.08971	0.000406
0.438	-0.003728	-0.005649	0.111717	-0.001226	-0.003259	0.003155	0.087253	-0.000315
0.4385	-0.003062	-0.002936	0.073516	-0.00398	-0.004727	0.002371	0.039881	-0.000939
0.439	-0.002021	-5.5e-05	0.028078	-0.002694	-0.006733	0.000477	-0.010637	-0.000603
0.4395	-0.001059	0.000718	-0.069297	0.002069	-0.009325	-0.002706	-0.035402	-0.000824
0.44	-0.000667	-0.000882	-0.148819	0.005979	-0.01051	-0.005287	-0.042973	-0.000143
0.4405	-0.000877	-0.001759	-0.148168	0.007072	-0.008825	-0.006402	-0.055097	0.003105
0.441	-0.000827	-0.000316	-0.099051	0.006168	-0.005257	-0.006314	-0.079817	0.004513
0.4415	0.000219	0.000615	-0.058735	0.005344	-0.002083	-0.004911	-0.111975	0.000357
0.442	0.001964	-0.000945	-0.033586	0.006135	-0.000858	-0.00331	-0.13279	-0.004299
0.4425	0.003371	-0.003486	-0.008771	0.007527	-0.001296	-0.00207	-0.102582	-0.002658
0.443	0.003514	-0.005015	0.005414	0.007318	-0.00184	-2.9e-05	0.004033	0.003574
0.4435	0.00258	-0.004892	-0.00313	0.005484	-0.001728	0.002439	0.134925	0.007674
0.444	0.001416	-0.003746	-0.017256	0.003548	-0.001945	0.003983	0.182355	0.007615
0.4445	0.000265	-0.001837	-0.01455	0.000958	-0.003383	0.004766	0.105836	0.006962
0.445	-0.00128	0.00143	-0.001385	-0.00504	-0.004633	0.005567	-0.011811	0.007335
0.4455	-0.003421	0.004513	-0.00524	-0.014104	-0.003605	0.006214	-0.068828	0.00593
0.446	-0.005044	0.003782	-0.044129	-0.020307	-0.000763	0.005063	-0.057491	0.002292
0.4465	-0.004748	-0.001196	-0.110259	-0.020009	0.0017	0.001757	-0.035592	-0.000169
0.447	-0.00327	-0.006979	-0.173985	-0.016814	0.002389	-0.000738	-0.033541	-0.000184
0.4475	-0.002487	-0.011667	-0.200144	-0.013365	0.001335	-0.001204	-0.036106	8.7e-05
0.448	-0.002351	-0.01524	-0.170334	-0.007531	-8.9e-05	-0.002042	-0.029062	-0.00167
0.4485	-0.001377	-0.016652	-0.093323	0.000261	-0.000887	-0.003312	-0.019747	-0.003962
0.449	0.000425	-0.015446	0.009148	0.005348	-0.001482	-0.002789	-0.015654	-0.002792
0.4495	0.001601	-0.012987	0.115827	0.005804	-0.001561	-0.001072	-0.012901	0.000716
0.45	0.001701	-0.010528	0.196989	0.004658	-3e-06	-7e-06	-0.008224	0.001459
0.4505	0.001762	-0.008725	0.216045	0.005035	0.002632	0.000789	-0.004686	-0.000566
0.451	0.002389	-0.008603	0.161404	0.007729	0.004158	0.002356	-0.004729	-0.000444
0.4515	0.003393	-0.009648	0.065631	0.011584	0.003552	0.004379	-0.007163	0.002618
0.452	0.00515	-0.010299	-0.010106	0.014691	0.002203	0.005082	-0.010358	0.004151
0.4525	0.00799	-0.012093	-0.011632	0.017487	0.00214	0.003087	-0.012611	0.002916
0.453	0.010925	-0.014772	0.050321	0.021681	0.003872	0.000479	-0.011726	0.001445
0.4535	0.012242	-0.012088	0.080956	0.026314	0.005556	-2.9e-05	-0.008461	-0.000158
0.454	0.010961	-0.001963	0.015872	0.027985	0.005399	0.00033	-0.006476	-0.002809
0.4545	0.007621	0.008149	-0.063671	0.024063	0.004094	-0.000188	-0.007039	-0.003884
0.455	0.003723	0.011471	-0.044638	0.015156	0.002937	-0.00042	-0.007626	-0.000878
0.4555	0.000314	0.01	0.026393	0.005206	0.001801	0.000614	-0.005714	0.003054
0.456	-0.002737	0.009454	0.010985	-0.001073	0.000333	0.001622	-0.00147	0.003759
0.4565	-0.005717	0.011876	-0.104262	-0.003318	-6.1e-05	0.001581	0.002589	0.00119
0.457	-0.00795	0.015103	-0.20611	-0.004836	0.001008	0.000879	0.004525	-0.001727
0.4575	-0.008101	0.016139	-0.229491	-0.005893	0.000605	-0.001094	0.006047	-0.001839
0.458	-0.005589	0.014898	-0.205295	-0.004858	-0.00163	-0.004429	0.009921	-0.000631
0.4585	-0.002056	0.013509	-0.175465	-0.002842	-0.002684	-0.005723	0.014511	-0.001559
0.459	-0.000384	0.012172	-0.164245	-0.002641	-0.002572	-0.003284	0.016115	-0.00278
0.4595	-0.001397	0.009293	-0.192177	-0.006464	-0.003169	-0.000706	0.015044	-0.000794
0.46	-0.002704	0.00464	-0.240615	-0.01307	-0.004227	-0.000473	0.013714	0.0029
0.4605	-0.001586	-0.000349	-0.240429	-0.016663	-0.004538	-0.000778	0.012336	0.003812
0.461	0.001894	-0.004043	-0.14633	-0.012777	-0.003969	2.3e-05	0.009989	0.001173
0.4615	0.005515	-0.004894	0.011518	-0.003143	-0.003234	0.00134	0.007507	-0.000992
0.462	0.00779	-0.002865	0.165119	0.008273	-0.00349	0.001936	0.007707	0.000996
0.4625	0.008872	-0.000281	0.254908	0.017597	-0.005571	0.001276	0.01012	0.006982
0.463	0.008685	0.002145	0.252641	0.018807	-0.006874	-9.5e-05	0.005728	0.012724
0.4635	0.006243	0.006125	0.201448	0.009194	-0.004632	-0.002157	-0.015439	0.014698
0.464	0.001997	0.011581	0.208205	-0.004663	-0.002795	-0.005356	-0.048723	0.014642
0.4645	-0.001759	0.016324	0.316274	-0.013674	-0.00556	-0.007331	-0.072903	0.015
0.465	-0.00395	0.01764	0.411723	-0.016024	-0.009545	-0.005493	-0.069396	0.014932
0.4655	-0.005406	0.013537	0.347475	-0.01559	-0.010483	-0.002777	-0.043871	0.014282
0.466	-0.006211	0.005225	0.141415	-0.014347	-0.009383	-0.003002	-0.025792	0.015496
0.4665	-0.004518	-0.002827	-0.041582	-0.010827	-0.008394	-0.004537	-0.047493	0.018259
0.467	0.000331	-0.006927	-0.092552	-0.002512	-0.00712	-0.004765	-0.121089	0.018597
0.4675	0.005157	-0.007173	-0.057003	0.009038	-0.004997	-0.003128	-0.218014	0.01579
0.468	0.007017	-0.004777	-0.038661	0.016248	-0.002106	0.000506	-0.264773	0.012728
0.4685	0.006458	-0.000167	-0.085013	0.01545	0.001948	0.003792	-0.186177	0.010829
0.469	0.004737	0.003904	-0.169493	0.010946	0.005427	0.003864	0.018618	0.009887
0.4695	0.003188	0.004041	-0.222032	0.006492	0.00516	0.002398	0.247074	0.009218
0.47	0.003204	0.001044	-0.180263	0.002079	0.001961	0.002837	0.367189	0.007957
0.4705	0.003402	-0.002694	-0.06419	-0.002642	0.0006	0.005388	0.336684	0.006393
0.471	0.002162	-0.006087	0.019656	-0.005458	0.003932	0.007227	0.233225	0.005066
0.4715	0.001356	-0.007644	0.002913	-0.003549	0.009495	0.006401	0.153865	0.003391
0.472	0.002324	-0.006828	-0.052665	0.000366	0.012232	0.003965	0.11522	0.001289
0.4725	0.002938	-0.005055	-0.048132	0.000679	0.009731	0.001719	0.07549	-0.000576
0.473	0.001528	-0.003202	0.015933	-0.00236	0.004731	0.000762	0.016288	-0.001779
0.4735	8.6e-05	-0.00148	0.061359	-0.004545	0.001918	0.00139	-0.036655	-0.002275
0.474	0.000806	-8.8e-05	0.048798	-0.004275	0.002646	0.002679	-0.057631	-0.002875
0.4745	0.002066	0.000651	0.009772	-0.002623	0.004196	0.0033	-0.052136	-0.003958
0.475	0.001625	-0.000167	-0.01527	-0.000899	0.00388	0.002329	-0.040583	-0.004994
0.4755	-3e-06	-0.002107	-0.021241	0.00019	0.002139	0.000149	-0.031036	-0.005846
0.476	-0.001424	-0.003895	-0.023462	0.000757	0.000403	-0.002274	-0.01824	-0.00584
0.4765	-0.001819	-0.005848	-0.031179	0.00161	-0.00107	-0.004295	-0.002007	-0.004477
0.477	-0.001334	-0.008422	-0.045015	0.001562	-0.001278	-0.004587	0.007458	-0.003943
0.4775	-0.001195	-0.011553	-0.062716	-0.001328	0.001107	-0.00367	0.004942	-0.005991
0.478	-0.001947	-0.014252	-0.076428	-0.004643	0.004447	-0.003779	-0.002541	-0.009082
0.4785	-0.002927	-0.013823	-0.076428	-0.005202	0.005208	-0.004023	-0.006143	-0.011428
0.479	-0.003655	-0.009359	-0.064419	-0.004164	0.002729	-0.002674	-0.004501	-0.012843
0.4795	-0.004486	-0.003407	-0.052233	-0.004042	2.4e-05	-0.001305	-0.002316	-0.013785
0.48	-0.005922	0.001561	-0.04482	-0.005041	-0.000704	-0.001624	-0.003147	-0.014077
0.4805	-0.007095	0.005196	-0.03349	-0.005357	-0.000215	-0.001377	-0.006335	-0.013709
0.481	-0.006643	0.007744	-0.009313	-0.003439	-0.000396	0.001747	-0.009537	-0.013498
0.4815	-0.004847	0.008768	0.023309	-0.000402	-0.002044	0.004716	-0.011078	-0.01294
0.482	-0.002731	0.007716	0.054752	0.000529	-0.003769	0.004236	-0.010697	-0.011623
0.4825	-0.00143	0.00467	0.085857	-0.000397	-0.0043	0.001621	-0.00939	-0.010524
0.483	-0.002222	0.000511	0.118753	3.3e-05	-0.003909	-0.000883	-0.008105	-0.009987
0.4835	-0.004437	-0.002796	0.13652	0.000626	-0.002513	-0.002411	-0.007391	-0.010382
0.484	-0.006014	-0.002767	0.116879	-0.0016	-0.000193	-0.003002	-0.007901	-0.011636
0.4845	-0.006388	-0.000362	0.067256	-0.004462	0.001181	-0.002594	-0.009059	-0.011814
0.485	-0.005952	-0.000532	0.021544	-0.004744	-1.4e-05	-0.001219	-0.008762	-0.010814
0.4855	-0.005158	-0.004203	-0.001932	-0.006146	-0.002246	-0.001262	-0.006415	-0.010951
0.486	-0.006593	-0.006204	-0.016792	-0.016699	-0.0027	-0.004087	-0.004453	-0.010889
0.4865	-0.01291	-0.003474	-0.038545	-0.039358	-0.000856	-0.005292	-0.004658	-0.008088
0.487	-0.021779	0.001282	-0.059182	-0.068195	0.001275	-0.001279	-0.005516	-0.005358
0.4875	-0.029393	0.002429	-0.05895	-0.093296	0.001202	0.003996	-0.005811	-0.005318
0.488	-0.035896	-0.002708	-0.033244	-0.110063	-0.000408	0.00573	-0.006558	-0.00589
0.4885	-0.042152	-0.00823	-0.003877	-0.12163	0.000339	0.004785	-0.008179	-0.005538
0.489	-0.046229	-0.005988	-0.00513	-0.130156	0.00439	0.004228	-0.009558	-0.00503
0.4895	-0.045612	0.002937	-0.055449	-0.130106	0.007279	0.004344	-0.009745	-0.003909
0.49	-0.039567	0.01115	-0.133892	-0.114749	0.005796	0.003209	-0.008942	-0.001107
0.4905	-0.028901	0.014786	-0.182042	-0.085589	0.003012	0.001162	-0.007515	0.001587
0.491	-0.015354	0.014577	-0.142174	-0.047512	0.002805	0.000544	-0.004976	0.002372
0.4915	-0.000317	0.013285	-0.009376	-0.00156	0.00442	0.001351	-0.001334	0.002806
0.492	0.016017	0.012829	0.151403	0.05027	0.005466	0.001599	0.001649	0.004211
0.4925	0.032736	0.010998	0.248942	0.10171	0.005012	0.000869	0.00209	0.005787
0.493	0.047378	0.005593	0.238197	0.146008	0.003277	0.000794	0.00033	0.006557
0.4935	0.058005	-0.00041	0.154551	0.179439	0.00144	0.001902	-0.00171	0.005919
0.494	0.064595	-0.0029	0.069992	0.201472	0.001049	0.002271	-0.003333	0.003597
0.4945	0.068131	-0.002401	0.020203	0.212247	0.002332	0.000821	-0.004852	0.000636
0.495	0.068238	-0.002237	-0.006885	0.210335	0.00394	-0.001536	-0.00565	-0.000147
0.4955	0.062603	-0.002147	-0.018504	0.191088	0.004698	-0.004051	-0.005186	0.002921
0.496	0.05024	0.000734	0.008431	0.150656	0.003365	-0.005815	-0.004241	0.007987
0.4965	0.034153	0.004573	0.082751	0.096165	-0.000284	-0.005414	-0.00342	0.011543
0.497	0.018788	0.004695	0.15889	0.045163	-0.003126	-0.002377	-0.002315	0.011225
0.4975	0.007136	0.001975	0.172157	0.010127	-0.002897	0.002469	-0.00104	0.006952
0.498	0.000783	0.000891	0.105239	-0.009032	-0.001524	0.006819	-3e-06	0.00084
0.4985	-0.001514	0.001237	0.003364	-0.01734	-0.001608	0.007737	0.001256	-0.002532
0.499	-0.003155	-0.00014	-0.070425	-0.021094	-0.002563	0.005335	0.002177	-0.000294
0.4995	-0.005568	-0.003159	-0.086669	-0.026033	-0.002222	0.002496	0.000494	0.00352
0.5	-0.008149	-0.005717	-0.063567	-0.031088	-0.00092	0.0001	-0.004045	0.003993
0.5005	-0.009714	-0.006554	-0.039919	-0.032145	0.000379	-0.002656	-0.007756	0.002069
0.501	-0.008894	-0.005636	-0.036423	-0.029684	0.001748	-0.004828	-0.007512	0.000127
0.5015	-0.006549	-0.004561	-0.044035	-0.027067	0.001973	-0.004453	-0.005051	-0.001398
0.502	-0.005515	-0.005145	-0.045892	-0.02613	-2.7e-05	-0.001645	-0.004009	-0.001998
0.5025	-0.00615	-0.006459	-0.038921	-0.026015	-0.002456	0.001211	-0.004403	-0.001746
0.503	-0.006455	-0.005839	-0.031102	-0.025145	-0.002677	0.00176	-0.003114	-0.000971
0.5035	-0.006594	-0.003081	-0.027733	-0.023492	-0.001901	-0.000923	0.000789	0.001951
0.504	-0.007247	-0.000458	-0.026471	-0.022919	-0.003209	-0.004844	0.004656	0.006207
0.5045	-0.006511	0.000341	-0.023718	-0.024271	-0.005499	-0.006127	0.005784	0.007144
0.505	-0.004243	-0.000876	-0.020572	-0.024483	-0.006102	-0.003902	0.003905	0.005448
0.5055	-0.002987	-0.002655	-0.019114	-0.021354	-0.005239	-0.000922	0.001491	0.006946
0.506	-0.002821	-0.003321	-0.017749	-0.017357	-0.003983	0.000204	0.001473	0.011625
0.5065	-0.002799	-0.003735	-0.013554	-0.014895	-0.003425	-0.000973	0.003672	0.014466
0.507	-0.004012	-0.005032	-0.007484	-0.01422	-0.004124	-0.002696	0.004502	0.013682
0.5075	-0.006207	-0.005333	-0.004685	-0.015618	-0.004427	-0.002861	-0.000425	0.010536
0.507999999999999	-0.007246	-0.003087	-0.006734	-0.018464	-0.003861	-0.001192	-0.01169	0.006682
0.508499999999999	-0.00654	0.000279	-0.008256	-0.020045	-0.004241	0.000922	-0.023577	0.004339
0.508999999999999	-0.004969	0.003449	-0.004598	-0.018875	-0.004902	0.00236	-0.029917	0.004229
0.509499999999999	-0.003591	0.00608	0.000979	-0.01654	-0.003486	0.002872	-0.030225	0.004143
0.509999999999999	-0.002956	0.006271	0.000928	-0.014651	-0.000248	0.001925	-0.027697	0.001616
0.510499999999999	-0.002931	0.00055	-0.003633	-0.013944	0.002513	-0.000374	-0.024883	-0.003315
0.510999999999999	-0.004239	-0.011736	-0.000848	-0.014112	0.00266	-0.001998	-0.021596	-0.007589
0.511499999999999	-0.00684	-0.022767	0.011183	-0.013704	0.000328	-0.000945	-0.014448	-0.008844
0.511999999999999	-0.007771	-0.021636	0.010118	-0.012546	-0.001367	0.00183	0.000542	-0.008566
0.512499999999999	-0.006107	-0.008438	-0.026822	-0.010564	-0.001119	0.003058	0.023482	-0.008268
0.512999999999999	-0.005101	0.005993	-0.08594	-0.006761	-0.001753	0.001844	0.047074	-0.007724
0.513499999999999	-0.005736	0.012637	-0.121987	-0.002253	-0.004563	0.000995	0.060906	-0.007551
0.513999999999999	-0.005782	0.010547	-0.104519	2e-06	-0.007008	0.002293	0.062353	-0.00783
0.514499999999999	-0.005222	0.00554	-0.04834	-0.002175	-0.006582	0.003379	0.055136	-0.007107
0.514999999999999	-0.005685	0.004652	0.008046	-0.009309	-0.003725	0.001735	0.040434	-0.005525
0.515499999999999	-0.006535	0.008943	0.046204	-0.01816	-0.002113	-0.000651	0.019092	-0.005228
0.515999999999999	-0.005992	0.012527	0.075017	-0.021883	-0.004311	-0.000754	-0.004181	-0.006555
0.516499999999999	-0.004141	0.011138	0.09923	-0.018027	-0.007005	0.000711	-0.02409	-0.007829
0.516999999999998	-0.002504	0.007306	0.102685	-0.011476	-0.005723	0.00105	-0.03862	-0.008472
0.517499999999998	-0.001789	0.004843	0.067483	-0.006366	-0.001945	-0.00084	-0.047287	-0.008623
0.517999999999998	-0.001203	0.004719	0.000881	-0.003207	0.000113	-0.002922	-0.047017	-0.008659
0.518499999999998	-0.000346	0.005714	-0.06192	-0.001961	0.000219	-0.002313	-0.034919	-0.009509
0.518999999999998	-0.000329	0.005474	-0.084852	-0.002013	0.000852	0.000514	-0.017219	-0.010427
0.519499999999998	-0.001125	0.003288	-0.061784	-0.002315	0.002014	0.002095	-0.01004	-0.009151
0.519999999999998	-0.001035	0.001582	-0.020076	-0.002837	0.001738	0.001162	-0.025166	-0.005279
0.520499999999998	-0.000222	0.002609	0.007439	-0.004384	0.000123	0.000441	-0.057656	-0.000192
0.520999999999998	-0.001109	0.005246	0.012418	-0.007888	-0.000537	0.000961	-0.090301	0.004163
0.521499999999998	-0.004598	0.00646	0.00806	-0.014915	0.001189	0.0004	-0.101186	0.004402
0.521999999999998	-0.008175	0.003771	0.005078	-0.024343	0.003363	-0.001313	-0.068717	0.000656
0.522499999999998	-0.008697	-0.002028	0.003295	-0.029369	0.002617	-0.001688	0.009597	-0.001495
0.522999999999998	-0.005833	-0.00583	0.000254	-0.025956	7.8e-05	0.000308	0.098646	-0.000765
0.523499999999998	-0.002312	-0.00467	-0.00223	-0.018368	0.000286	0.002746	0.147447	-0.000963
0.523999999999998	-0.000943	-0.001769	-0.00127	-0.011458	0.00358	0.002422	0.141139	-0.0023
0.524499999999998	-0.001345	-0.001594	0.001805	-0.005892	0.006262	-0.00049	0.114007	-0.00139
0.524999999999998	-0.001265	-0.005453	0.00394	-0.00147	0.006649	-0.00274	0.10138	0.00279
0.525499999999998	-7.1e-05	-0.010811	0.004456	0.000853	0.006219	-0.003513	0.100398	0.006316
0.525999999999997	0.00131	-0.013152	0.00443	0.001502	0.006514	-0.003666	0.089141	0.005515
0.526499999999997	0.002191	-0.009158	0.004669	0.00263	0.007173	-0.002798	0.063549	0.002332
0.526999999999997	0.003043	-4.4e-05	0.004085	0.006211	0.006698	-0.001437	0.039419	0.000666
0.527499999999997	0.005106	0.008176	0.002083	0.013881	0.004472	-0.000762	0.029166	0.000993
0.527999999999997	0.008598	0.010973	0.000891	0.023257	0.001866	-0.000411	0.030038	0.001323
0.528499999999997	0.011597	0.008863	0.000969	0.028412	0.001043	-0.000142	0.029185	0.001561
0.528999999999997	0.01208	0.004728	0.000255	0.028589	0.003022	0.000195	0.010623	0.002524
0.529499999999997	0.010687	0.002027	-0.000521	0.028124	0.006529	0.001247	-0.038834	0.002484
0.529999999999997	0.00912	0.002388	0.000773	0.027949	0.0082	0.002327	-0.117089	0.000373
0.530499999999997	0.006978	0.003791	0.00296	0.024834	0.006533	0.002391	-0.192351	-0.001942
0.530999999999997	0.003234	0.004194	0.001814	0.017543	0.005155	0.0014	-0.211179	-0.00283
0.531499999999997	-0.000503	0.004313	-0.007448	0.00843	0.007713	0.000625	-0.142336	-0.002362
0.531999999999997	-0.002169	0.005002	-0.028305	0.001309	0.011636	0.001688	-0.018764	-0.001038
0.532499999999997	-0.00274	0.005515	-0.060662	-0.000554	0.012306	0.003404	0.082116	0.000537
0.532999999999997	-0.003446	0.003856	-0.096726	0.002148	0.009802	0.003463	0.109887	0.000984
0.533499999999997	-0.003768	-0.00226	-0.122136	0.004991	0.007233	0.002457	0.080172	8.5e-05
0.533999999999997	-0.00419	-0.010817	-0.128175	0.004813	0.005984	0.002438	0.039699	-0.000306
0.534499999999997	-0.005786	-0.014699	-0.12102	0.00259	0.004889	0.00309	0.014295	0.001026
0.534999999999996	-0.007364	-0.010448	-0.113943	0.001159	0.002915	0.002132	0.002069	0.003727
0.535499999999996	-0.006548	-0.00313	-0.112158	0.00102	0.0003	-0.000669	-0.003109	0.006039
0.535999999999996	-0.003151	0.00046	-0.106214	0.001172	-0.003251	-0.003514	-0.001932	0.005897
0.536499999999996	0.000344	-7.4e-05	-0.078658	0.0014	-0.007933	-0.005018	0.002604	0.003259
0.536999999999996	0.001787	0.000542	-0.027221	0.00175	-0.011851	-0.004762	0.003039	-0.000253
0.537499999999996	0.001556	0.005937	0.018437	0.003788	-0.013917	-0.004053	-0.003574	-0.002388
0.537999999999996	0.001068	0.014463	0.026535	0.008126	-0.017354	-0.003993	-0.01147	-0.001537
0.538499999999996	0.000782	0.021953	0.01032	0.010469	-0.02383	-0.002963	-0.015008	0.000775
0.538999999999996	0.000838	0.024829	0.023209	0.007343	-0.027159	-0.000227	-0.016709	0.00097
0.539499999999996	0.001449	0.020643	0.104253	0.001713	-0.020482	0.001761	-0.02199	-0.002
0.539999999999996	0.001877	0.009883	0.23723	-0.001355	-0.004428	0.001542	-0.03039	-0.004523
0.540499999999996	0.001265	-0.001997	0.35972	-0.000996	0.015287	0.000349	-0.036226	-0.00238
0.540999999999996	5.2e-05	-0.010841	0.402747	0.000272	0.031237	-0.001187	-0.035344	0.003381
0.541499999999996	-0.000779	-0.018918	0.332946	0.000363	0.036376	-0.003662	-0.028783	0.007669
0.541999999999996	-0.000798	-0.027751	0.183304	-0.002666	0.028293	-0.005958	-0.021012	0.008189
0.542499999999996	-0.000688	-0.033271	0.041491	-0.008968	0.010592	-0.00621	-0.015191	0.00781
0.542999999999996	-0.001824	-0.030841	-0.018736	-0.015268	-0.008548	-0.004867	-0.010859	0.009804
0.543499999999996	-0.004083	-0.021329	0.000929	-0.018431	-0.019006	-0.003072	-0.007378	0.014181
0.543999999999995	-0.004871	-0.011105	0.041682	-0.016557	-0.016683	-0.001139	-0.005795	0.01877
0.544499999999995	-0.00269	-0.005471	0.057623	-0.009204	-0.008839	-4.6e-05	-0.006751	0.021952
0.544999999999995	0.000281	-0.002664	0.04928	-0.000238	-0.004923	-0.000401	-0.009001	0.024583
0.545499999999995	0.002049	0.005678	0.036945	0.004113	-0.005775	-0.000292	-0.009208	0.027023
0.545999999999995	0.002756	0.024833	0.028285	0.003177	-0.006997	0.001819	-0.006062	0.028371
0.546499999999995	0.002515	0.047782	0.017132	0.002794	-0.006602	0.00409	-0.002246	0.029812
0.546999999999995	0.001859	0.060401	-0.001472	0.00517	-0.0059	0.004274	0.000743	0.031749
0.547499999999995	0.002378	0.053329	-0.023402	0.00616	-0.006738	0.002743	0.003843	0.03244
0.547999999999995	0.004692	0.029526	-0.042202	0.003853	-0.00962	0.001297	0.006871	0.030967
0.548499999999995	0.007262	0.002653	-0.056807	0.001619	-0.013424	0.000823	0.00769	0.026912
0.548999999999995	0.008891	-0.015557	-0.066967	0.003183	-0.015673	0.000735	0.005035	0.020824
0.549499999999995	0.010357	-0.024579	-0.068272	0.009417	-0.013093	0.000227	0.001026	0.014973
0.549999999999995	0.012037	-0.030793	-0.058008	0.018267	-0.004382	6.2e-05	-0.000904	0.010302
0.550499999999995	0.01284	-0.038639	-0.042241	0.024307	0.004177	0.001637	0.000293	0.004117
0.550999999999995	0.01133	-0.047553	-0.033031	0.022808	0.0017	0.003643	0.002968	-0.005638
0.551499999999995	0.007729	-0.053753	-0.037702	0.015354	-0.010447	0.004307	0.004654	-0.017225
0.551999999999995	0.004465	-0.052871	-0.051889	0.006936	-0.016118	0.004601	0.004101	-0.02893
0.552499999999995	0.002549	-0.042654	-0.063346	0.000804	-0.007635	0.004666	0.00263	-0.03903
0.552999999999994	0.001009	-0.023484	-0.061764	-0.002403	0.003979	0.003206	0.002534	-0.044589
0.553499999999994	-2.9e-05	-0.000575	-0.04767	-0.003462	0.00737	0.000588	0.003923	-0.045762
0.553999999999994	-8.9e-05	0.014167	-0.031723	-0.003153	0.004524	-0.001935	0.004919	-0.045837
0.554499999999994	0.000207	0.013382	-0.022304	-0.002159	0.003252	-0.003509	0.004604	-0.046567
0.554999999999994	-9.8e-05	0.00537	-0.018423	-0.001603	0.006199	-0.003392	0.003347	-0.047142
0.555499999999994	-0.001277	0.004142	-0.017045	-0.002369	0.010068	-0.001862	0.001465	-0.046619
0.555999999999994	-0.002186	0.013988	-0.02084	-0.003617	0.011447	-0.00089	0.000349	-0.044555
0.556499999999994	-0.001676	0.030674	-0.034274	-0.004582	0.010711	-0.000564	0.002272	-0.041057
0.556999999999994	-0.000683	0.050246	-0.054195	-0.006095	0.010168	0.001137	0.006825	-0.037287
0.557499999999994	-0.000925	0.069218	-0.069454	-0.006657	0.010616	0.002445	0.009672	-0.031848
0.557999999999994	-0.002104	0.078315	-0.070653	-0.003999	0.010949	0.00094	0.006563	-0.020941
0.558499999999994	-0.002886	0.062455	-0.057712	-0.001231	0.010295	-0.00024	-0.001319	-0.005023
0.558999999999994	-0.003571	0.016304	-0.038453	-0.001889	0.008922	0.001474	-0.008053	0.010643
0.559499999999994	-0.005018	-0.041088	-0.021809	-0.003853	0.006231	0.003404	-0.010089	0.02079
0.559999999999994	-0.006636	-0.080116	-0.012102	-0.005081	0.002219	0.003348	-0.00914	0.023244
0.560499999999994	-0.007122	-0.091504	-0.008063	-0.006323	0.00033	0.002229	-0.008201	0.019899
0.560999999999994	-0.006207	-0.09389	-0.007443	-0.006211	0.002604	0.000539	-0.009151	0.016089
0.561499999999994	-0.005014	-0.107174	-0.01254	-0.003613	0.005799	-0.001443	-0.011485	0.018196
0.561999999999994	-0.005192	-0.129284	-0.026198	-0.002051	0.00594	-0.001641	-0.01232	0.028683
0.562499999999993	-0.007409	-0.14614	-0.042523	-0.003773	0.003094	3.7e-05	-0.011077	0.04182
0.562999999999993	-0.009842	-0.152572	-0.050287	-0.005944	0.000786	0.000527	-0.008064	0.046771
0.563499999999993	-0.010338	-0.15014	-0.046453	-0.006046	0.001265	-0.001008	0.001482	0.038152
0.563999999999993	-0.009302	-0.127501	-0.038964	-0.004622	0.002933	-0.001981	0.021829	0.0214
0.564499999999993	-0.007718	-0.0627	-0.034004	-0.003292	0.002538	-0.000306	0.047014	0.005773
0.564999999999993	-0.005644	0.044396	-0.027836	-0.002534	-0.001775	0.002867	0.062888	-0.004078
0.565499999999993	-0.003246	0.157181	-0.014602	-0.001784	-0.006447	0.004594	0.060133	-0.009926
0.565999999999993	-0.000999	0.22918	0.006535	-0.001085	-0.003589	0.00398	0.043556	-0.014596
0.566499999999993	0.000313	0.237259	0.034561	-0.000187	0.007581	0.002081	0.02492	-0.015844
0.566999999999993	0.000409	0.191824	0.067192	0.001079	0.016929	-0.000151	0.010766	-0.011456
0.567499999999993	-0.000156	0.125842	0.094511	0.00151	0.016365	-0.001605	0.002444	-0.005349
0.567999999999993	-0.000757	0.071529	0.102085	0.000696	0.009662	-0.001938	0.000679	-0.001769
0.568499999999993	-0.000683	0.041778	0.087393	-0.000297	0.006147	-0.001599	0.003928	-0.000468
0.568999999999993	0.000367	0.030071	0.066028	-0.000639	0.009016	-0.000185	0.007623	0.000296
0.569499999999993	0.001643	0.02249	0.05551	-0.000517	0.013976	0.001322	0.009033	0.000779
0.569999999999993	0.001816	0.011147	0.054629	-0.00057	0.016343	0.000604	0.009401	0.000297
0.570499999999993	0.000769	0.000194	0.045657	-0.000817	0.015531	-0.001124	0.009622	-0.001146
0.570999999999993	0.000561	-0.001446	0.02286	-0.000655	0.012318	-0.001128	0.007829	-0.002414
0.571499999999992	0.002202	0.008947	0.006224	-0.000152	0.002713	-0.000699	0.002702	-0.001939
0.571999999999992	0.003578	0.02609	0.011978	-0.000284	-0.017193	-0.001913	-0.003739	-0.000661
0.572499999999992	0.003427	0.042521	0.023277	-0.000487	-0.039976	-0.003387	-0.008044	-0.002852
0.572999999999992	0.003557	0.052283	0.009789	0.001255	-0.052814	-0.003455	-0.009427	-0.010884
0.573499999999992	0.004526	0.051133	-0.031007	0.004903	-0.053865	-0.002896	-0.010531	-0.020443
0.573999999999992	0.004259	0.0399	-0.070769	0.007536	-0.052163	-0.002797	-0.013451	-0.024141
0.574499999999992	0.002533	0.026059	-0.086503	0.006818	-0.05173	-0.003011	-0.01597	-0.019458
0.574999999999992	0.000943	0.015831	-0.081108	0.004425	-0.045122	-0.003599	-0.014028	-0.009773
0.575499999999992	0.000351	0.009133	-0.065102	0.002896	-0.026274	-0.004439	-0.008463	-0.001213
0.575999999999992	0.001296	0.004078	-0.039179	0.002516	-0.002941	-0.004053	-0.00438	0.001664
0.576499999999992	0.002992	-0.000817	-0.005719	0.003152	0.011954	-0.002065	-0.004112	0.000123
0.576999999999992	0.003841	-0.00861	0.022909	0.003309	0.016258	-0.000295	-0.006489	-0.002804
0.577499999999992	0.003831	-0.023328	0.038751	0.000932	0.015902	-0.000194	-0.010093	-0.005289
0.577999999999992	0.003376	-0.046087	0.043038	-0.002505	0.01347	-0.001388	-0.01446	-0.001717
0.578499999999992	0.002153	-0.072266	0.034023	-0.003909	0.008411	-0.002389	-0.020447	0.015944
0.578999999999992	0.000186	-0.094062	0.010923	-0.003802	0.00264	-0.001375	-0.028669	0.045517
0.579499999999992	-0.001215	-0.107462	-0.009932	-0.004651	-0.000132	0.001794	-0.036435	0.068246
0.579999999999992	-9.6e-05	-0.115392	-0.007893	-0.004888	0.001003	0.003856	-0.038212	0.065609
0.580499999999991	0.003322	-0.120557	0.012848	-0.002261	0.003138	0.00251	-0.031895	0.040872
0.580999999999991	0.005914	-0.120354	0.030271	0.001326	0.003367	-8.8e-05	-0.021648	0.014527
0.581499999999991	0.00545	-0.112952	0.035394	0.003881	0.001675	-0.000959	-0.01166	-5.6e-05
0.581999999999991	0.003346	-0.101198	0.035547	0.003603	0.000111	0.000706	-0.002985	-0.008874
0.582499999999991	0.001941	-0.089669	0.033824	-0.00146	0.00065	0.002705	0.001907	-0.022204
0.582999999999991	0.00071	-0.079029	0.025896	-0.008673	0.003548	0.002113	-0.000698	-0.036407
0.583499999999991	-0.001568	-0.060789	0.01403	-0.012853	0.006936	-0.000249	-0.007111	-0.041261
0.583999999999991	-0.003139	-0.021943	0.005463	-0.011476	0.008341	-0.001879	-0.005576	-0.036679
0.584499999999991	-0.002486	0.03899	0.000496	-0.005385	0.007324	-0.002382	0.006861	-0.029741
0.584999999999991	-0.001489	0.099508	-0.004097	0.001292	0.006012	-0.002485	0.01476	-0.023188
0.585499999999991	-0.001801	0.128903	-0.006609	0.003906	0.006292	-0.002354	0.002964	-0.017366
0.585999999999991	-0.002872	0.124007	-0.004556	0.002306	0.007018	-0.001505	-0.021919	-0.014224
0.586499999999991	-0.003533	0.110477	-0.00155	0.000228	0.005888	-2.5e-05	-0.039243	-0.013571
0.586999999999991	-0.002819	0.103284	-0.002936	-0.000124	0.003463	0.001118	-0.038714	-0.013685
0.587499999999991	-0.001228	0.091234	-0.007084	-0.000131	0.002315	0.001241	-0.028267	-0.013973
0.587999999999991	0.000174	0.065958	-0.00758	-0.00089	0.003792	0.000958	-0.022127	-0.013123
0.588499999999991	0.001056	0.040925	-0.002572	-0.000511	0.006566	0.001637	-0.02927	-0.008689
0.588999999999991	0.000769	0.031982	0.003896	0.001717	0.007471	0.003518	-0.048884	-0.000539
0.58949999999999	-7.1e-05	0.037801	0.007071	0.003071	0.006013	0.00596	-0.065794	0.006462
0.58999999999999	0.00058	0.047722	0.00485	0.002658	0.005001	0.008971	-0.048862	0.008978
0.59049999999999	0.002307	0.053619	-0.00024	0.00288	0.005077	0.012372	0.030862	0.012175
0.59099999999999	0.003221	0.050516	-0.003505	0.004063	0.004857	0.014582	0.158568	0.020906
0.59149999999999	0.003297	0.03739	-0.004555	0.003904	0.004525	0.013777	0.258491	0.030807
0.59199999999999	0.003082	0.018539	-0.006425	0.00224	0.005025	0.010285	0.256033	0.035797
0.59249999999999	0.002816	0.00043	-0.00932	0.001275	0.006511	0.00663	0.163265	0.036166
0.59299999999999	0.002878	-0.011751	-0.010646	0.001597	0.00838	0.003694	0.066745	0.034286
0.59349999999999	0.002367	-0.016333	-0.009124	0.001475	0.009853	-0.001103	0.025063	0.029253
0.59399999999999	0.000479	-0.013976	-0.005937	-3.2e-05	0.010979	-0.008931	0.014974	0.019249
0.59449999999999	-0.001174	-0.003853	-0.002912	-0.002142	0.012707	-0.015379	-0.010836	0.004631
0.59499999999999	-0.001483	0.014327	-0.001415	-0.003415	0.014678	-0.015963	-0.054433	-0.011525
0.59549999999999	-0.001541	0.03737	-0.002001	-0.00233	0.014722	-0.012943	-0.088284	-0.025838
0.59599999999999	-0.001276	0.059929	-0.003481	0.000252	0.011943	-0.010389	-0.108855	-0.038337
0.59649999999999	0.000218	0.072695	-0.003772	0.001716	0.007517	-0.008112	-0.140049	-0.049731
0.59699999999999	0.000847	0.06509	-0.002342	0.001961	0.002594	-0.005246	-0.190712	-0.05768
0.59749999999999	-0.001399	0.038787	-0.00156	0.002184	-0.001425	-0.002219	-0.232941	-0.060109
0.59799999999999	-0.003664	0.010572	-0.004135	0.001549	-0.002017	0.001447	-0.224332	-0.058232
0.598499999999989	-0.003012	-0.005233	-0.008302	-0.000212	0.000635	0.005532	-0.136149	-0.053338
0.598999999999989	-0.000826	-0.009229	-0.009347	-0.000598	0.002643	0.008291	0.029349	-0.045179
0.599499999999989	0.00098	-0.009151	-0.006329	0.000857	0.002355	0.008959	0.216924	-0.036268
0.599999999999989	0.001751	-0.008907	-0.002524	0.001376	0.001156	0.007502	0.324034	-0.030036
0.600499999999989	0.001141	-0.007388	6.3e-05	8.5e-05	0.000294	0.004246	0.282863	-0.024409
0.600999999999989	-0.000145	-0.003809	0.001659	-0.001187	0.000516	0.000955	0.142745	-0.01445
0.601499999999989	-0.001532	-0.001731	0.002402	-0.000442	0.00099	-0.000887	0.020706	0.001699
0.601999999999989	-0.002963	-0.004021	0.00277	0.00207	0.001273	-0.00198	-0.026259	0.020465
0.602499999999989	-0.003457	-0.007851	0.003328	0.003555	0.003407	-0.003721	-0.030533	0.034999
0.602999999999989	-0.002586	-0.010585	0.003493	0.001716	0.006682	-0.005061	-0.032527	0.042045
0.603499999999989	-0.001686	-0.013644	0.002813	-0.002246	0.006373	-0.003998	-0.031289	0.044366
0.603999999999989	-0.001605	-0.017693	0.001844	-0.004481	0.001308	-0.001794	-0.016549	0.04586
0.604499999999989	-0.00137	-0.022469	0.001318	-0.003965	-0.004272	-0.000619	0.001245	0.047556
0.604999999999989	-0.000373	-0.030377	0.001409	-0.002651	-0.007345	-0.001007	0.007313	0.04944
0.605499999999989	0.000981	-0.041281	0.001482	-0.001708	-0.008838	-0.002859	0.003229	0.051907
0.605999999999989	0.00282	-0.04925	0.000833	-0.001812	-0.010547	-0.004303	-0.001142	0.054283
0.606499999999989	0.004471	-0.05141	-0.000843	-0.001459	-0.01276	-0.00385	-0.003644	0.056693
0.606999999999989	0.004062	-0.050755	-0.00313	0.00112	-0.014708	-0.002846	-0.007448	0.059933
0.607499999999988	0.001503	-0.049818	-0.0046	0.002923	-0.015778	-0.002132	-0.01209	0.06373
0.607999999999988	-0.001204	-0.049615	-0.005148	0.001435	-0.015313	-0.00125	-0.014143	0.069626
0.608499999999988	-0.002619	-0.05156	-0.00671	-0.000554	-0.013792	-0.000551	-0.012477	0.078201
0.608999999999988	-0.002769	-0.05727	-0.009586	-0.000886	-0.012586	-0.000524	-0.009934	0.083739
0.609499999999988	-0.002259	-0.066686	-0.012063	-0.001096	-0.010468	-0.000885	-0.009205	0.080188
0.609999999999988	-0.001651	-0.075036	-0.013783	-0.001143	-0.006196	-0.00135	-0.009208	0.068262
0.610499999999988	-0.001019	-0.07297	-0.014627	0.000488	-0.001869	-0.002141	-0.007988	0.052427
0.610999999999988	6.8e-05	-0.054808	-0.012035	0.002054	0.000834	-0.003516	-0.006254	0.034955
0.611499999999988	0.001809	-0.030097	-0.003954	0.001413	0.002454	-0.005096	-0.005467	0.015505
0.611999999999988	0.003665	-0.021333	0.00677	-0.000307	0.003678	-0.00542	-0.005486	-0.003416
0.612499999999988	0.004466	-0.043907	0.013136	-0.001101	0.003776	-0.003718	-0.005765	-0.016893
0.612999999999988	0.003434	-0.089814	0.011268	-0.001193	0.000995	-0.001426	-0.006776	-0.026887
0.613499999999988	0.001184	-0.133902	0.005942	-0.001999	-0.004267	0.000178	-0.009228	-0.039823
0.613999999999988	-0.000638	-0.15553	0.003995	-0.002499	-0.008779	0.000863	-0.012704	-0.053655
0.614499999999988	-0.001031	-0.150976	0.005089	-0.001328	-0.0097	0.000588	-0.016344	-0.058072
0.614999999999988	-0.000827	-0.125909	0.004367	-0.000146	-0.007101	0.000161	-0.019278	-0.046605
0.615499999999988	-0.000753	-0.081337	0.001387	-0.00081	-0.004284	0.000875	-0.020341	-0.024661
0.615999999999988	-0.000578	-0.014493	0.000208	-0.002426	-0.00442	0.003169	-0.020436	-0.00487
0.616499999999988	-0.000645	0.061026	0.001447	-0.002852	-0.005808	0.005629	-0.021727	0.003443
0.616999999999987	-0.000986	0.110324	0.002245	-0.001828	-0.0041	0.006034	-0.023214	-0.000806
0.617499999999987	-0.001609	0.110957	0.002384	-0.000357	-3e-06	0.004192	-0.02261	-0.009993
0.617999999999987	-0.003084	0.077207	0.002895	0.000764	0.001927	0.002405	-0.020807	-0.015454
0.618499999999987	-0.004763	0.030166	0.002985	0.000994	0.001619	0.002297	-0.020347	-0.018868
0.618999999999987	-0.006221	-0.031345	0.002072	0.001071	0.002137	0.002687	-0.020045	-0.029201
0.619499999999987	-0.007996	-0.10191	0.001128	0.001572	0.003257	0.001768	-0.012783	-0.049426
0.619999999999987	-0.009309	-0.145	0.001522	0.001118	0.003697	-0.000414	0.006028	-0.071206
0.620499999999987	-0.009139	-0.135269	0.002691	-0.001022	0.004332	-0.002156	0.026347	-0.082667
0.620999999999987	-0.008079	-0.097594	0.002455	-0.002094	0.004046	-0.00218	0.029799	-0.079969
0.621499999999987	-0.00739	-0.069668	0.001073	-0.000306	-0.000127	-0.000837	0.012167	-0.070845
0.621999999999987	-0.007287	-0.05116	0.000478	0.000994	-0.006106	0.000731	-0.012176	-0.064812
0.622499999999987	-0.006501	-0.01771	4.4e-05	-4e-05	-0.008187	0.001263	-0.032251	-0.060732
0.622999999999987	-0.004208	0.038607	-0.001596	-0.001221	-0.005072	0.000574	-0.050742	-0.051163
0.623499999999987	-0.00139	0.102844	-0.003031	-0.001371	-0.001484	0.000183	-0.065317	-0.034646
0.623999999999987	0.000354	0.152399	-0.001644	-0.000304	-0.001632	0.001335	-0.057905	-0.016955
0.624499999999987	0.000325	0.169513	0.003108	0.001197	-0.00385	0.003599	-0.017446	-0.006657
0.624999999999987	-0.000456	0.156003	0.008627	0.001753	-0.004933	0.005803	0.036429	-0.00929
0.625499999999987	-0.000551	0.137972	0.01188	0.001844	-0.005126	0.007037	0.067798	-0.021065
0.625999999999986	-0.000562	0.137259	0.012809	0.002282	-0.005894	0.007123	0.059149	-0.03163
0.626499999999986	-0.001518	0.140959	0.012319	0.00222	-0.007266	0.007476	0.02065	-0.033607
0.626999999999986	-0.002259	0.121432	0.009805	0.000378	-0.007219	0.009379	-0.027014	-0.026112
0.627499999999986	-0.001155	0.081615	0.005511	-0.002127	-0.004061	0.010522	-0.062256	-0.011706
0.627999999999986	0.001855	0.055208	0.001013	-0.002788	0.000358	0.007819	-0.062644	0.00483
0.628499999999986	0.004997	0.060123	-0.002475	-0.001334	0.002968	0.002805	-0.020484	0.018471
0.628999999999986	0.006123	0.073524	-0.003641	0.000833	0.002783	-0.000752	0.036813	0.027915
0.629499999999986	0.005426	0.065847	-0.001946	0.002678	0.000873	-0.001372	0.064892	0.03332
0.629999999999986	0.004296	0.044458	0.000796	0.004146	-0.001015	0.000146	0.05124	0.033391
0.630499999999986	0.003208	0.041127	0.002132	0.004341	-0.002131	0.001964	0.0263	0.027489
0.630999999999986	0.002511	0.060875	0.001496	0.002406	-0.00296	0.002711	0.021013	0.017707
0.631499999999986	0.002032	0.071722	9.1e-05	0.0013	-0.003822	0.002174	0.035663	0.009902
0.631999999999986	0.001396	0.054831	-0.001517	0.00298	-0.004812	0.000504	0.05374	0.008538
0.632499999999986	0.001411	0.033076	-0.00371	0.003784	-0.008279	-0.00178	0.064252	0.009966
0.632999999999986	0.002427	0.03122	-0.005521	0.001158	-0.018002	-0.004037	0.064687	0.008171
0.633499999999986	0.003352	0.039362	-0.00499	-0.00107	-0.033279	-0.00595	0.054566	0.003749
0.633999999999986	0.003928	0.036776	-0.002042	0.000212	-0.044559	-0.0065	0.030578	0.000911
0.634499999999986	0.004756	0.026489	0.000837	0.001568	-0.037974	-0.005327	-0.010107	0.000929
0.634999999999985	0.00484	0.023855	0.001126	0.000898	-0.010841	-0.004138	-0.056523	0.003108
0.635499999999985	0.003507	0.027219	-0.001113	0.000792	0.019891	-0.003146	-0.082444	0.005753
0.635999999999985	0.002717	0.022995	-0.003327	0.001742	0.03331	-0.001279	-0.074996	0.006325
0.636499999999985	0.003452	0.011902	-0.003459	0.002572	0.026795	0.000395	-0.05934	0.006185
0.636999999999985	0.004507	0.008443	-0.002188	0.003056	0.016286	0.000904	-0.075606	0.009246
0.637499999999985	0.005614	0.014816	-0.000908	0.002477	0.014233	0.000675	-0.132602	0.015169
0.637999999999985	0.007017	0.016269	0.000301	0.001344	0.015775	-2.3e-05	-0.189932	0.01989
0.638499999999985	0.007846	0.00588	0.001561	0.002006	0.013306	-0.000395	-0.180825	0.020768
0.638999999999985	0.007421	-0.006172	0.002762	0.003832	0.012947	0.000876	-0.068235	0.018466
0.639499999999985	0.006661	-0.011231	0.003591	0.003003	0.023304	0.003555	0.10188	0.015396
0.639999999999985	0.007026	-0.013161	0.003196	0.000162	0.037965	0.005125	0.223021	0.013869
0.640499999999985	0.008572	-0.017689	0.001406	-0.000218	0.042956	0.003781	0.228205	0.013758
0.640999999999985	0.009082	-0.023883	-0.001072	0.001648	0.034918	0.000241	0.149499	0.013461
0.641499999999985	0.00633	-0.029118	-0.003726	0.002134	0.022702	-0.004096	0.06429	0.013422
0.641999999999985	0.002199	-0.031447	-0.00565	0.000221	0.014955	-0.007302	0.015785	0.013806
0.642499999999985	0.00067	-0.026396	-0.005657	-0.001682	0.010671	-0.007748	0.003471	0.013354
0.642999999999985	0.001971	-0.010761	-0.00445	-0.000686	0.003423	-0.006534	0.013664	0.012207
0.643499999999985	0.003242	0.00778	-0.004758	0.002368	-0.007035	-0.005817	0.031967	0.010776
0.643999999999984	0.00313	0.01085	-0.007671	0.003873	-0.014611	-0.005794	0.044475	0.00888
0.644499999999984	0.00248	-0.01324	-0.011029	0.002936	-0.017382	-0.005554	0.045722	0.007034
0.644999999999984	0.001919	-0.053982	-0.013006	0.001652	-0.019366	-0.005993	0.040352	0.005662
0.645499999999984	0.001553	-0.08694	-0.013859	0.00031	-0.022176	-0.008604	0.033876	0.003823
0.645999999999984	0.001527	-0.096889	-0.013735	-0.001871	-0.021817	-0.011757	0.028321	0.001867
0.646499999999984	0.001314	-0.087406	-0.012374	-0.003072	-0.015095	-0.012449	0.024867	0.00295
0.646999999999984	0.000858	-0.069188	-0.01031	-0.002339	-0.005517	-0.009262	0.024191	0.006929
0.647499999999984	0.000792	-0.049176	-0.008887	-0.001333	0.001173	-0.002753	0.02536	0.009057
0.647999999999984	0.001137	-0.031212	-0.008998	-0.000638	0.00448	0.003361	0.025446	0.007171
0.648499999999984	0.002008	-0.018623	-0.0095	-0.000168	0.007342	0.005708	0.021301	0.003486
0.648999999999984	0.003069	-0.015786	-0.008379	-0.000482	0.010142	0.005703	0.013675	0.000862
0.649499999999984	0.003245	-0.027555	-0.004858	-0.000847	0.010962	0.005408	0.006987	0.000369
0.649999999999984	0.002596	-0.051249	0.00062	0.000219	0.01109	0.004477	0.004451	0.000952
0.650499999999984	0.002222	-0.070915	0.006413	0.001667	0.015599	0.003404	0.005012	0.000918
0.650999999999984	0.002679	-0.071379	0.009854	0.001688	0.026764	0.003685	0.004105	0.000476
0.651499999999984	0.00296	-0.05729	0.009152	0.000469	0.040038	0.005283	-0.002539	0.001187
0.651999999999984	0.000984	-0.044051	0.00536	-0.001573	0.046808	0.006619	-0.01467	0.002623
0.652499999999984	-0.003374	-0.032318	0.002185	-0.003305	0.042074	0.005879	-0.028305	0.003065
0.652999999999983	-0.007378	-0.009853	0.003184	-0.003394	0.029798	0.003121	-0.040205	0.002595
0.653499999999983	-0.009825	0.020112	0.008471	-0.003269	0.018179	0.000856	-0.048239	0.002539
0.653999999999983	-0.01162	0.033231	0.014244	-0.004436	0.012386	0.000969	-0.049605	0.002984
0.654499999999983	-0.011701	0.015624	0.01606	-0.005675	0.012378	0.002574	-0.044102	0.002452
0.654999999999983	-0.00966	-0.015382	0.013455	-0.00523	0.013325	0.002985	-0.036872	-7.5e-05
0.655499999999983	-0.00839	-0.030325	0.010458	-0.00353	0.010097	0.00075	-0.032641	-0.003826
0.655999999999983	-0.00883	-0.016741	0.0103	-0.00346	0.003202	-0.001904	-0.031571	-0.008011
0.656499999999983	-0.008939	0.01338	0.011929	-0.005973	-0.003999	-0.002623	-0.032783	-0.01252
0.656999999999983	-0.008493	0.037834	0.0125	-0.007674	-0.011114	-0.002152	-0.033706	-0.015709
0.657499999999983	-0.008499	0.042275	0.010805	-0.006504	-0.018665	-0.001146	-0.029876	-0.0157
0.657999999999983	-0.008172	0.028451	0.007727	-0.004878	-0.027652	0.000973	-0.022731	-0.014186
0.658499999999983	-0.007288	0.010377	0.004441	-0.004793	-0.043485	0.003728	-0.018856	-0.013918
0.658999999999983	-0.007753	0.001519	0.001038	-0.005046	-0.067921	0.005435	-0.020142	-0.013239
0.659499999999983	-0.010349	0.00431	-0.00245	-0.005201	-0.087109	0.005182	-0.022338	-0.008118
0.659999999999983	-0.014037	0.012194	-0.005061	-0.005681	-0.082929	0.003279	-0.020905	0.002587
0.660499999999983	-0.017238	0.020638	-0.00637	-0.004279	-0.056149	-3.1e-05	-0.014667	0.015024
0.660999999999983	-0.017945	0.032317	-0.00687	-0.000418	-0.025942	-0.003736	-0.005435	0.022294
0.661499999999983	-0.015969	0.047872	-0.006284	0.002435	-0.00814	-0.005936	0.00358	0.022105
0.661999999999982	-0.013636	0.057487	-0.003858	0.002259	-0.002649	-0.006365	0.008766	0.019507
0.662499999999982	-0.012141	0.049816	-0.000396	0.001211	-0.000214	-0.006648	0.007184	0.018542
0.662999999999982	-0.010779	0.028166	0.002094	0.002123	0.00491	-0.007716	-0.003488	0.016611
0.663499999999982	-0.00957	0.009032	0.002909	0.004346	0.010778	-0.009082	-0.026017	0.010466
0.663999999999982	-0.007999	0.002578	0.003031	0.005302	0.013817	-0.01043	-0.060757	0.001972
0.664499999999982	-0.003822	0.003821	0.003565	0.004062	0.014305	-0.011116	-0.099875	-0.00591
0.664999999999982	0.002586	0.003525	0.003999	0.002231	0.013911	-0.010213	-0.128208	-0.012395
0.665499999999982	0.007599	-0.000877	0.002305	0.001412	0.012799	-0.008478	-0.134134	-0.018157
0.665999999999982	0.009772	-0.006673	-0.001408	0.000452	0.011814	-0.007442	-0.120423	-0.024176
0.666499999999982	0.010439	-0.011642	-0.004253	-0.001237	0.013105	-0.00712	-0.10229	-0.028253
0.666999999999982	0.00992	-0.014817	-0.004506	-0.001921	0.01759	-0.005826	-0.093422	-0.027121
0.667499999999982	0.008426	-0.014839	-0.002212	-0.001571	0.023401	-0.002529	-0.093623	-0.023102
0.667999999999982	0.008644	-0.010055	0.00239	-0.001723	0.026279	0.002508	-0.089784	-0.021084
0.668499999999982	0.012119	-0.002591	0.007422	-0.001839	0.022873	0.008956	-0.065286	-0.019892
0.668999999999982	0.016103	0.000491	0.008531	-0.000692	0.014412	0.01548	-0.003351	-0.014724
0.669499999999982	0.018106	-0.002952	0.003536	0.000375	0.004781	0.019941	0.106462	-0.007465
0.669999999999982	0.018712	-0.006206	-0.002987	0.000473	-0.004494	0.020689	0.239618	-0.004522
0.670499999999982	0.018651	-0.004834	-0.004547	0.000585	-0.012802	0.017961	0.321856	-0.005697
0.670999999999982	0.017878	-0.004134	-0.002	0.000133	-0.016071	0.014311	0.287433	-0.005124
0.671499999999981	0.016427	-0.012529	-0.002314	5.2e-05	-0.009834	0.011011	0.163392	0.000368
0.671999999999981	0.014116	-0.028501	-0.007572	0.002927	0.003776	0.007606	0.053214	0.008962
0.672499999999981	0.010963	-0.039624	-0.012354	0.006108	0.014732	0.004622	0.022754	0.017198
0.672999999999981	0.007622	-0.037023	-0.013143	0.005735	0.014265	0.002304	0.044482	0.02532
0.673499999999981	0.004704	-0.02157	-0.012347	0.003835	0.006072	-0.000124	0.062831	0.038218
0.673999999999981	0.002772	0.003841	-0.011932	0.002707	0.002873	-0.002278	0.064298	0.056858
0.674499999999981	0.002593	0.036797	-0.01036	0.001393	0.010907	-0.002824	0.064184	0.071539
0.674999999999981	0.003962	0.065998	-0.007257	0.00091	0.022714	-0.002429	0.064105	0.072221
0.675499999999981	0.005089	0.06756	-0.005637	0.002398	0.025728	-0.002895	0.052557	0.06088
0.675999999999981	0.003768	0.02438	-0.007989	0.003659	0.014962	-0.003888	0.030679	0.04617
0.676499999999981	-0.001102	-0.050507	-0.012818	0.003677	-0.003087	-0.00399	0.012446	0.032559
0.676999999999981	-0.00769	-0.120919	-0.015627	0.003588	-0.017603	-0.002313	0.004537	0.018543
0.677499999999981	-0.012065	-0.15634	-0.01281	0.003451	-0.024553	0.000983	0.00194	0.00237
0.677999999999981	-0.01194	-0.144731	-0.004841	0.002547	-0.031525	0.003816	-0.0001	-0.01522
0.678499999999981	-0.008315	-0.089351	0.004486	0.001345	-0.049344	0.004555	-0.002327	-0.033339
0.678999999999981	-0.004567	-0.016598	0.011713	0.001414	-0.073806	0.00367	-0.006179	-0.050133
0.679499999999981	-0.003291	0.024419	0.014872	0.002592	-0.08116	0.00179	-0.012525	-0.062367
0.679999999999981	-0.003769	0.004352	0.01277	0.002835	-0.056096	-0.000986	-0.019418	-0.068171
0.68049999999998	-0.004513	-0.0483	0.006783	0.001664	-0.016042	-0.003669	-0.024391	-0.068708
0.68099999999998	-0.00525	-0.081615	0.000683	-0.000133	0.010004	-0.004072	-0.025673	-0.066974
0.68149999999998	-0.00542	-0.082252	-0.003296	-0.002261	0.015324	-0.00168	-0.023923	-0.06322
0.68199999999998	-0.004762	-0.07211	-0.004767	-0.004222	0.012993	0.001	-0.022507	-0.055125
0.68249999999998	-0.004525	-0.062781	-0.002501	-0.005643	0.011337	0.002027	-0.022632	-0.042577
0.68299999999998	-0.005329	-0.048456	0.004629	-0.006486	0.008418	0.002169	-0.022565	-0.027955
0.68349999999998	-0.006181	-0.024554	0.014397	-0.006531	0.004115	0.001756	-0.021632	-0.013888
0.68399999999998	-0.007211	0.015495	0.020913	-0.005701	0.001838	-0.001247	-0.020473	-0.000983
0.68449999999998	-0.009733	0.081904	0.019934	-0.004406	0.002895	-0.006476	-0.019598	0.011407
0.68499999999998	-0.012919	0.162838	0.014087	-0.003694	0.00622	-0.008937	-0.019243	0.021804
0.68549999999998	-0.014238	0.213795	0.008724	-0.003657	0.009002	-0.006733	-0.019099	0.028063
0.68599999999998	-0.012807	0.195881	0.005071	-0.00298	0.008728	-0.004408	-0.018917	0.030401
0.68649999999998	-0.009773	0.118341	0.001523	-0.001716	0.00557	-0.004984	-0.01946	0.031022
0.68699999999998	-0.00662	0.030569	-0.002176	-0.00065	0.001404	-0.006442	-0.022579	0.032943
0.68749999999998	-0.004162	-0.021616	-0.004015	0.000887	-0.001047	-0.006366	-0.0296	0.039959
0.68799999999998	-0.002336	-0.026059	-0.001981	0.002267	0.00109	-0.004342	-0.037671	0.054778
0.68849999999998	-0.000748	-0.002862	0.001936	0.001803	0.007914	-0.001854	-0.04164	0.073653
0.68899999999998	0.000664	0.015974	0.003389	0.000965	0.014534	-0.001027	-0.041957	0.086219
0.689499999999979	0.001637	0.013612	0.001762	0.00046	0.016008	-0.001401	-0.043991	0.08381
0.689999999999979	0.001968	0.003015	0.000118	-0.001254	0.013389	-0.001244	-0.048426	0.067585
0.690499999999979	0.001799	0.008528	0.000602	-0.002448	0.011213	-0.001036	-0.050107	0.046085
0.690999999999979	0.001636	0.033228	0.001966	-0.002045	0.012404	-0.001303	-0.047506	0.02331
0.691499999999979	0.001909	0.054713	0.001378	-0.002312	0.017023	-0.001596	-0.048856	-0.00314
0.691999999999979	0.0025	0.053735	-0.001566	-0.003195	0.024544	-0.002745	-0.066663	-0.032423
0.692499999999979	0.002838	0.034758	-0.004406	-0.002623	0.033227	-0.00476	-0.10001	-0.058931
0.692999999999979	0.00312	0.014509	-0.005016	-0.000875	0.036591	-0.005274	-0.123257	-0.079349
0.693499999999979	0.004366	0.00106	-0.003872	0.00016	0.029029	-0.003813	-0.109336	-0.093502
0.693999999999979	0.0061	-0.00957	-0.003106	0.00078	0.014418	-0.002525	-0.067724	-0.097477
0.694499999999979	0.006741	-0.019325	-0.00356	0.001891	0.002349	-0.001864	-0.040675	-0.086032
0.694999999999979	0.006227	-0.018167	-0.00432	0.003	-0.003119	-0.001131	-0.057024	-0.063057
0.695499999999979	0.00589	0.003204	-0.004749	0.004407	-0.005914	-0.000535	-0.104796	-0.040611
0.695999999999979	0.006323	0.031125	-0.00456	0.00553	-0.009846	0.000314	-0.15225	-0.028279
